Angle,Intensity
5.00656514,779
5.019695423,779
5.032825705,787
5.045955988,774
5.059086271,747
5.072216553,766
5.085346836,744
5.098477119,762
5.111607401,738
5.124737684,779
5.137867967,728
5.150998249,767
5.164128532,761
5.177258815,774
5.190389097,795
5.20351938,741
5.216649663,721
5.229779946,708
5.242910228,770
5.256040511,758
5.269170794,740
5.282301076,760
5.295431359,761
5.308561642,717
5.321691924,775
5.334822207,739
5.34795249,745
5.361082772,736
5.374213055,712
5.387343338,811
5.40047362,779
5.413603903,749
5.426734186,722
5.439864468,762
5.452994751,750
5.466125034,759
5.479255316,753
5.492385599,738
5.505515882,773
5.518646164,807
5.531776447,760
5.54490673,768
5.558037012,701
5.571167295,725
5.584297578,737
5.59742786,732
5.610558143,703
5.623688426,757
5.636818708,686
5.649948991,771
5.663079274,761
5.676209557,707
5.689339839,750
5.702470122,736
5.715600405,791
5.728730687,767
5.74186097,719
5.754991253,781
5.768121535,785
5.781251818,783
5.794382101,791
5.807512383,695
5.820642666,739
5.833772949,803
5.846903231,696
5.860033514,725
5.873163797,776
5.886294079,723
5.899424362,730
5.912554645,708
5.925684927,743
5.93881521,707
5.951945493,735
5.965075775,740
5.978206058,699
5.991336341,708
6.004466623,733
6.017596906,684
6.030727189,779
6.043857471,760
6.056987754,722
6.070118037,689
6.083248319,753
6.096378602,762
6.109508885,734
6.122639168,732
6.13576945,705
6.148899733,738
6.162030016,690
6.175160298,768
6.188290581,720
6.201420864,673
6.214551146,699
6.227681429,703
6.240811712,719
6.253941994,731
6.267072277,705
6.28020256,766
6.293332842,763
6.306463125,717
6.319593408,795
6.33272369,690
6.345853973,700
6.358984256,681
6.372114538,714
6.385244821,676
6.398375104,716
6.411505386,686
6.424635669,740
6.437765952,719
6.450896234,731
6.464026517,770
6.4771568,696
6.490287082,738
6.503417365,711
6.516547648,704
6.52967793,758
6.542808213,712
6.555938496,676
6.569068779,771
6.582199061,737
6.595329344,711
6.608459627,694
6.621589909,755
6.634720192,726
6.647850475,710
6.660980757,701
6.67411104,733
6.687241323,735
6.700371605,757
6.713501888,630
6.726632171,765
6.739762453,694
6.752892736,735
6.766023019,688
6.779153301,674
6.792283584,731
6.805413867,735
6.818544149,711
6.831674432,715
6.844804715,723
6.857934997,680
6.87106528,689
6.884195563,716
6.897325845,681
6.910456128,681
6.923586411,705
6.936716693,727
6.949846976,717
6.962977259,697
6.976107541,681
6.989237824,760
7.002368107,708
7.01549839,680
7.028628672,666
7.041758955,688
7.054889238,707
7.06801952,719
7.081149803,745
7.094280086,687
7.107410368,706
7.120540651,694
7.133670934,679
7.146801216,678
7.159931499,726
7.173061782,688
7.186192064,703
7.199322347,743
7.21245263,683
7.225582912,727
7.238713195,695
7.251843478,693
7.26497376,710
7.278104043,687
7.291234326,732
7.304364608,648
7.317494891,670
7.330625174,651
7.343755456,719
7.356885739,656
7.370016022,727
7.383146304,687
7.396276587,727
7.40940687,737
7.422537152,697
7.435667435,712
7.448797718,723
7.461928001,709
7.475058283,668
7.488188566,679
7.501318849,764
7.514449131,649
7.527579414,689
7.540709697,676
7.553839979,734
7.566970262,729
7.580100545,677
7.593230827,700
7.60636111,664
7.619491393,738
7.632621675,712
7.645751958,709
7.658882241,691
7.672012523,699
7.685142806,671
7.698273089,677
7.711403371,688
7.724533654,678
7.737663937,659
7.750794219,664
7.763924502,645
7.777054785,734
7.790185067,634
7.80331535,647
7.816445633,714
7.829575915,653
7.842706198,637
7.855836481,661
7.868966763,705
7.882097046,722
7.895227329,690
7.908357612,695
7.921487894,673
7.934618177,674
7.94774846,681
7.960878742,700
7.974009025,705
7.987139308,700
8.00026959,671
8.013399873,672
8.026530156,707
8.039660438,715
8.052790721,679
8.065921004,685
8.079051286,698
8.092181569,703
8.105311852,690
8.118442134,645
8.131572417,666
8.1447027,627
8.157832982,715
8.170963265,672
8.184093548,652
8.19722383,673
8.210354113,670
8.223484396,701
8.236614678,650
8.249744961,687
8.262875244,714
8.276005526,705
8.289135809,628
8.302266092,711
8.315396375,695
8.328526657,675
8.34165694,700
8.354787223,637
8.367917505,683
8.381047788,701
8.394178071,676
8.407308353,677
8.420438636,661
8.433568919,669
8.446699201,719
8.459829484,629
8.472959767,702
8.486090049,622
8.499220332,652
8.512350615,696
8.525480897,668
8.53861118,636
8.551741463,667
8.564871745,671
8.578002028,615
8.591132311,682
8.604262593,649
8.617392876,707
8.630523159,660
8.643653441,655
8.656783724,629
8.669914007,704
8.683044289,657
8.696174572,638
8.709304855,691
8.722435137,698
8.73556542,640
8.748695703,700
8.761825986,642
8.774956268,663
8.788086551,689
8.801216834,683
8.814347116,733
8.827477399,672
8.840607682,669
8.853737964,696
8.866868247,630
8.87999853,656
8.893128812,668
8.906259095,642
8.919389378,656
8.93251966,681
8.945649943,665
8.958780226,650
8.971910508,662
8.985040791,630
8.998171074,618
9.011301356,646
9.024431639,615
9.037561922,615
9.050692204,607
9.063822487,624
9.07695277,640
9.090083052,666
9.103213335,641
9.116343618,698
9.1294739,612
9.142604183,667
9.155734466,653
9.168864748,700
9.181995031,631
9.195125314,608
9.208255597,604
9.221385879,629
9.234516162,689
9.247646445,601
9.260776727,594
9.27390701,632
9.287037293,646
9.300167575,653
9.313297858,637
9.326428141,621
9.339558423,621
9.352688706,601
9.365818989,654
9.378949271,621
9.392079554,641
9.405209837,630
9.418340119,621
9.431470402,653
9.444600685,640
9.457730967,627
9.47086125,668
9.483991533,653
9.497121815,643
9.510252098,634
9.523382381,630
9.536512663,642
9.549642946,647
9.562773229,609
9.575903511,634
9.589033794,627
9.602164077,662
9.615294359,635
9.628424642,590
9.641554925,589
9.654685208,600
9.66781549,601
9.680945773,592
9.694076056,626
9.707206338,636
9.720336621,636
9.733466904,660
9.746597186,639
9.759727469,635
9.772857752,654
9.785988034,635
9.799118317,620
9.8122486,612
9.825378882,607
9.838509165,618
9.851639448,652
9.86476973,713
9.877900013,636
9.891030296,632
9.904160578,606
9.917290861,638
9.930421144,583
9.943551426,623
9.956681709,636
9.969811992,640
9.982942274,646
9.996072557,621
10.00920284,619
10.02233312,589
10.03546341,588
10.04859369,651
10.06172397,639
10.07485425,575
10.08798454,646
10.10111482,637
10.1142451,636
10.12737538,675
10.14050567,580
10.15363595,602
10.16676623,641
10.17989652,617
10.1930268,575
10.20615708,594
10.21928736,630
10.23241765,657
10.24554793,638
10.25867821,576
10.27180849,599
10.28493878,631
10.29806906,580
10.31119934,649
10.32432962,562
10.33745991,610
10.35059019,583
10.36372047,601
10.37685076,566
10.38998104,602
10.40311132,636
10.4162416,635
10.42937189,571
10.44250217,570
10.45563245,616
10.46876273,608
10.48189302,603
10.4950233,591
10.50815358,679
10.52128386,605
10.53441415,601
10.54754443,588
10.56067471,571
10.573805,578
10.58693528,525
10.60006556,584
10.61319584,581
10.62632613,626
10.63945641,606
10.65258669,604
10.66571697,595
10.67884726,657
10.69197754,576
10.70510782,661
10.7182381,591
10.73136839,619
10.74449867,533
10.75762895,622
10.77075924,613
10.78388952,600
10.7970198,589
10.81015008,615
10.82328037,579
10.83641065,611
10.84954093,608
10.86267121,570
10.8758015,573
10.88893178,637
10.90206206,611
10.91519234,570
10.92832263,616
10.94145291,598
10.95458319,579
10.96771348,582
10.98084376,609
10.99397404,611
11.00710432,593
11.02023461,605
11.03336489,604
11.04649517,590
11.05962545,568
11.07275574,571
11.08588602,575
11.0990163,585
11.11214659,615
11.12527687,597
11.13840715,620
11.15153743,569
11.16466772,575
11.177798,595
11.19092828,600
11.20405856,592
11.21718885,569
11.23031913,637
11.24344941,590
11.25657969,559
11.26970998,543
11.28284026,554
11.29597054,593
11.30910083,652
11.32223111,611
11.33536139,649
11.34849167,586
11.36162196,583
11.37475224,588
11.38788252,576
11.4010128,594
11.41414309,651
11.42727337,527
11.44040365,577
11.45353393,667
11.46666422,628
11.4797945,569
11.49292478,590
11.50605507,573
11.51918535,620
11.53231563,582
11.54544591,592
11.5585762,609
11.57170648,535
11.58483676,583
11.59796704,548
11.61109733,633
11.62422761,626
11.63735789,617
11.65048817,607
11.66361846,618
11.67674874,556
11.68987902,587
11.70300931,567
11.71613959,561
11.72926987,626
11.74240015,581
11.75553044,594
11.76866072,611
11.781791,648
11.79492128,586
11.80805157,575
11.82118185,597
11.83431213,594
11.84744242,587
11.8605727,553
11.87370298,607
11.88683326,569
11.89996355,593
11.91309383,570
11.92622411,547
11.93935439,570
11.95248468,577
11.96561496,583
11.97874524,583
11.99187552,593
12.00500581,554
12.01813609,557
12.03126637,603
12.04439666,578
12.05752694,598
12.07065722,612
12.0837875,604
12.09691779,586
12.11004807,626
12.12317835,577
12.13630863,572
12.14943892,584
12.1625692,638
12.17569948,596
12.18882976,634
12.20196005,610
12.21509033,555
12.22822061,610
12.2413509,612
12.25448118,610
12.26761146,562
12.28074174,620
12.29387203,576
12.30700231,562
12.32013259,572
12.33326287,615
12.34639316,591
12.35952344,604
12.37265372,593
12.385784,609
12.39891429,550
12.41204457,592
12.42517485,546
12.43830514,577
12.45143542,652
12.4645657,576
12.47769598,628
12.49082627,573
12.50395655,569
12.51708683,574
12.53021711,568
12.5433474,585
12.55647768,600
12.56960796,632
12.58273824,559
12.59586853,595
12.60899881,621
12.62212909,601
12.63525938,600
12.64838966,585
12.66151994,545
12.67465022,565
12.68778051,526
12.70091079,549
12.71404107,575
12.72717135,618
12.74030164,592
12.75343192,581
12.7665622,618
12.77969249,546
12.79282277,527
12.80595305,577
12.81908333,539
12.83221362,598
12.8453439,550
12.85847418,512
12.87160446,577
12.88473475,564
12.89786503,612
12.91099531,563
12.92412559,573
12.93725588,538
12.95038616,528
12.96351644,592
12.97664673,558
12.98977701,564
13.00290729,572
13.01603757,516
13.02916786,576
13.04229814,549
13.05542842,547
13.0685587,567
13.08168899,561
13.09481927,575
13.10794955,610
13.12107983,572
13.13421012,598
13.1473404,575
13.16047068,570
13.17360097,575
13.18673125,603
13.19986153,617
13.21299181,591
13.2261221,584
13.23925238,584
13.25238266,592
13.26551294,607
13.27864323,610
13.29177351,591
13.30490379,595
13.31803407,607
13.33116436,562
13.34429464,588
13.35742492,585
13.37055521,599
13.38368549,566
13.39681577,567
13.40994605,536
13.42307634,598
13.43620662,597
13.4493369,606
13.46246718,626
13.47559747,647
13.48872775,679
13.50185803,654
13.51498831,714
13.5281186,678
13.54124888,658
13.55437916,702
13.56750945,708
13.58063973,750
13.59377001,738
13.60690029,701
13.62003058,792
13.63316086,737
13.64629114,787
13.65942142,814
13.67255171,875
13.68568199,869
13.69881227,977
13.71194256,1008
13.72507284,1020
13.73820312,1045
13.7513334,1172
13.76446369,1194
13.77759397,1275
13.79072425,1398
13.80385453,1555
13.81698482,1500
13.8301151,1787
13.84324538,1969
13.85637566,2123
13.86950595,2288
13.88263623,2511
13.89576651,2936
13.9088968,3233
13.92202708,3729
13.93515736,4493
13.94828764,5186
13.96141793,6209
13.97454821,7567
13.98767849,8523
14.00080877,9603
14.01393906,9321
14.02706934,8002
14.04019962,6145
14.0533299,4654
14.06646019,3127
14.07959047,2071
14.09272075,1587
14.10585104,1193
14.11898132,1085
14.1321116,981
14.14524188,916
14.15837217,871
14.17150245,812
14.18463273,790
14.19776301,780
14.2108933,714
14.22402358,754
14.23715386,697
14.25028414,638
14.26341443,647
14.27654471,691
14.28967499,641
14.30280528,647
14.31593556,627
14.32906584,649
14.34219612,572
14.35532641,624
14.36845669,587
14.38158697,604
14.39471725,629
14.40784754,608
14.42097782,607
14.4341081,582
14.44723838,617
14.46036867,612
14.47349895,618
14.48662923,629
14.49975952,589
14.5128898,593
14.52602008,598
14.53915036,590
14.55228065,582
14.56541093,583
14.57854121,602
14.59167149,634
14.60480178,558
14.61793206,618
14.63106234,578
14.64419263,553
14.65732291,579
14.67045319,577
14.68358347,610
14.69671376,621
14.70984404,605
14.72297432,559
14.7361046,572
14.74923489,568
14.76236517,577
14.77549545,559
14.78862573,594
14.80175602,547
14.8148863,540
14.82801658,578
14.84114687,574
14.85427715,567
14.86740743,549
14.88053771,571
14.893668,566
14.90679828,595
14.91992856,552
14.93305884,609
14.94618913,583
14.95931941,564
14.97244969,572
14.98557997,571
14.99871026,563
15.01184054,557
15.02497082,617
15.03810111,564
15.05123139,596
15.06436167,584
15.07749195,600
15.09062224,529
15.10375252,592
15.1168828,564
15.13001308,581
15.14314337,527
15.15627365,586
15.16940393,559
15.18253421,564
15.1956645,554
15.20879478,580
15.22192506,562
15.23505535,558
15.24818563,559
15.26131591,549
15.27444619,547
15.28757648,574
15.30070676,541
15.31383704,532
15.32696732,571
15.34009761,567
15.35322789,553
15.36635817,558
15.37948846,553
15.39261874,540
15.40574902,511
15.4188793,533
15.43200959,530
15.44513987,560
15.45827015,531
15.47140043,584
15.48453072,558
15.497661,545
15.51079128,541
15.52392156,592
15.53705185,553
15.55018213,521
15.56331241,538
15.5764427,525
15.58957298,556
15.60270326,543
15.61583354,560
15.62896383,555
15.64209411,532
15.65522439,560
15.66835467,566
15.68148496,522
15.69461524,538
15.70774552,524
15.7208758,530
15.73400609,570
15.74713637,555
15.76026665,514
15.77339694,542
15.78652722,590
15.7996575,491
15.81278778,576
15.82591807,566
15.83904835,565
15.85217863,559
15.86530891,573
15.8784392,510
15.89156948,539
15.90469976,530
15.91783004,568
15.93096033,562
15.94409061,570
15.95722089,548
15.97035118,563
15.98348146,559
15.99661174,516
16.00974202,481
16.02287231,539
16.03600259,536
16.04913287,537
16.06226315,554
16.07539344,516
16.08852372,554
16.101654,564
16.11478428,555
16.12791457,547
16.14104485,509
16.15417513,548
16.16730542,543
16.1804357,537
16.19356598,509
16.20669626,516
16.21982655,543
16.23295683,563
16.24608711,534
16.25921739,565
16.27234768,550
16.28547796,524
16.29860824,557
16.31173853,523
16.32486881,535
16.33799909,524
16.35112937,548
16.36425966,552
16.37738994,508
16.39052022,521
16.4036505,480
16.41678079,505
16.42991107,503
16.44304135,551
16.45617163,531
16.46930192,510
16.4824322,501
16.49556248,536
16.50869277,546
16.52182305,551
16.53495333,515
16.54808361,507
16.5612139,554
16.57434418,514
16.58747446,501
16.60060474,506
16.61373503,521
16.62686531,541
16.63999559,547
16.65312587,531
16.66625616,499
16.67938644,548
16.69251672,522
16.70564701,534
16.71877729,513
16.73190757,516
16.74503785,540
16.75816814,511
16.77129842,498
16.7844287,540
16.79755898,530
16.81068927,519
16.82381955,503
16.83694983,502
16.85008011,480
16.8632104,533
16.87634068,525
16.88947096,528
16.90260125,547
16.91573153,506
16.92886181,561
16.94199209,549
16.95512238,505
16.96825266,528
16.98138294,492
16.99451322,506
17.00764351,564
17.02077379,503
17.03390407,490
17.04703435,505
17.06016464,527
17.07329492,553
17.0864252,508
17.09955549,513
17.11268577,484
17.12581605,492
17.13894633,515
17.15207662,496
17.1652069,508
17.17833718,542
17.19146746,500
17.20459775,472
17.21772803,486
17.23085831,532
17.2439886,500
17.25711888,532
17.27024916,479
17.28337944,579
17.29650973,515
17.30964001,509
17.32277029,456
17.33590057,462
17.34903086,456
17.36216114,493
17.37529142,475
17.3884217,540
17.40155199,499
17.41468227,511
17.42781255,530
17.44094284,456
17.45407312,497
17.4672034,478
17.48033368,509
17.49346397,508
17.50659425,516
17.51972453,495
17.53285481,490
17.5459851,481
17.55911538,478
17.57224566,469
17.58537594,491
17.59850623,538
17.61163651,535
17.62476679,490
17.63789708,485
17.65102736,508
17.66415764,462
17.67728792,472
17.69041821,509
17.70354849,489
17.71667877,500
17.72980905,458
17.74293934,559
17.75606962,480
17.7691999,528
17.78233018,510
17.79546047,553
17.80859075,543
17.82172103,507
17.83485132,492
17.8479816,481
17.86111188,486
17.87424216,475
17.88737245,481
17.90050273,483
17.91363301,489
17.92676329,493
17.93989358,479
17.95302386,482
17.96615414,483
17.97928442,489
17.99241471,518
18.00554499,437
18.01867527,486
18.03180556,508
18.04493584,485
18.05806612,471
18.0711964,482
18.08432669,463
18.09745697,507
18.11058725,468
18.12371753,449
18.13684782,486
18.1499781,500
18.16310838,507
18.17623867,465
18.18936895,498
18.20249923,539
18.21562951,516
18.2287598,450
18.24189008,500
18.25502036,454
18.26815064,482
18.28128093,513
18.29441121,466
18.30754149,461
18.32067177,515
18.33380206,512
18.34693234,493
18.36006262,506
18.37319291,458
18.38632319,459
18.39945347,461
18.41258375,497
18.42571404,512
18.43884432,497
18.4519746,471
18.46510488,474
18.47823517,480
18.49136545,454
18.50449573,465
18.51762601,499
18.5307563,429
18.54388658,546
18.55701686,438
18.57014715,457
18.58327743,490
18.59640771,476
18.60953799,463
18.62266828,500
18.63579856,492
18.64892884,476
18.66205912,447
18.67518941,475
18.68831969,453
18.70144997,502
18.71458025,447
18.72771054,431
18.74084082,484
18.7539711,535
18.76710139,477
18.78023167,509
18.79336195,477
18.80649223,490
18.81962252,469
18.8327528,458
18.84588308,480
18.85901336,453
18.87214365,477
18.88527393,520
18.89840421,484
18.9115345,460
18.92466478,470
18.93779506,478
18.95092534,432
18.96405563,420
18.97718591,454
18.99031619,455
19.00344647,473
19.01657676,414
19.02970704,482
19.04283732,476
19.0559676,436
19.06909789,468
19.08222817,465
19.09535845,498
19.10848874,513
19.12161902,495
19.1347493,509
19.14787958,472
19.16100987,508
19.17414015,487
19.18727043,496
19.20040071,462
19.213531,495
19.22666128,475
19.23979156,429
19.25292184,466
19.26605213,479
19.27918241,461
19.29231269,481
19.30544298,454
19.31857326,431
19.33170354,493
19.34483382,479
19.35796411,472
19.37109439,478
19.38422467,428
19.39735495,468
19.41048524,447
19.42361552,457
19.4367458,476
19.44987608,491
19.46300637,430
19.47613665,477
19.48926693,484
19.50239722,486
19.5155275,478
19.52865778,453
19.54178806,478
19.55491835,460
19.56804863,461
19.58117891,455
19.59430919,432
19.60743948,481
19.62056976,466
19.63370004,479
19.64683032,537
19.65996061,501
19.67309089,487
19.68622117,551
19.69935146,512
19.71248174,513
19.72561202,562
19.7387423,572
19.75187259,554
19.76500287,573
19.77813315,626
19.79126343,677
19.80439372,775
19.817524,859
19.83065428,893
19.84378457,945
19.85691485,955
19.87004513,853
19.88317541,769
19.8963057,723
19.90943598,668
19.92256626,640
19.93569654,543
19.94882683,551
19.96195711,520
19.97508739,495
19.98821767,506
20.00134796,472
20.01447824,496
20.02760852,450
20.04073881,508
20.05386909,501
20.06699937,490
20.08012965,454
20.09325994,503
20.10639022,496
20.1195205,485
20.13265078,485
20.14578107,461
20.15891135,463
20.17204163,471
20.18517191,448
20.1983022,431
20.21143248,459
20.22456276,493
20.23769305,458
20.25082333,474
20.26395361,431
20.27708389,458
20.29021418,453
20.30334446,458
20.31647474,447
20.32960502,467
20.34273531,452
20.35586559,464
20.36899587,503
20.38212615,449
20.39525644,476
20.40838672,407
20.421517,459
20.43464729,462
20.44777757,457
20.46090785,437
20.47403813,493
20.48716842,461
20.5002987,506
20.51342898,424
20.52655926,462
20.53968955,428
20.55281983,449
20.56595011,415
20.57908039,398
20.59221068,461
20.60534096,476
20.61847124,434
20.63160153,434
20.64473181,422
20.65786209,423
20.67099237,445
20.68412266,441
20.69725294,423
20.71038322,465
20.7235135,456
20.73664379,455
20.74977407,429
20.76290435,462
20.77603464,441
20.78916492,443
20.8022952,447
20.81542548,473
20.82855577,435
20.84168605,413
20.85481633,447
20.86794661,471
20.8810769,466
20.89420718,465
20.90733746,455
20.92046774,397
20.93359803,465
20.94672831,460
20.95985859,458
20.97298888,478
20.98611916,465
20.99924944,459
21.01237972,424
21.02551001,454
21.03864029,453
21.05177057,428
21.06490085,454
21.07803114,417
21.09116142,498
21.1042917,466
21.11742198,442
21.13055227,457
21.14368255,406
21.15681283,407
21.16994312,464
21.1830734,500
21.19620368,433
21.20933396,455
21.22246425,431
21.23559453,448
21.24872481,424
21.26185509,475
21.27498538,452
21.28811566,459
21.30124594,470
21.31437622,454
21.32750651,424
21.34063679,419
21.35376707,408
21.36689736,421
21.38002764,443
21.39315792,485
21.4062882,450
21.41941849,436
21.43254877,481
21.44567905,492
21.45880933,444
21.47193962,461
21.4850699,464
21.49820018,474
21.51133046,449
21.52446075,404
21.53759103,421
21.55072131,493
21.5638516,451
21.57698188,398
21.59011216,439
21.60324244,455
21.61637273,424
21.62950301,444
21.64263329,408
21.65576357,420
21.66889386,444
21.68202414,501
21.69515442,432
21.70828471,444
21.72141499,443
21.73454527,439
21.74767555,417
21.76080584,433
21.77393612,464
21.7870664,425
21.80019668,418
21.81332697,445
21.82645725,459
21.83958753,480
21.85271781,442
21.8658481,474
21.87897838,417
21.89210866,415
21.90523895,499
21.91836923,466
21.93149951,461
21.94462979,465
21.95776008,456
21.97089036,491
21.98402064,424
21.99715092,430
22.01028121,483
22.02341149,414
22.03654177,477
22.04967205,379
22.06280234,407
22.07593262,399
22.0890629,443
22.10219319,429
22.11532347,475
22.12845375,459
22.14158403,463
22.15471432,441
22.1678446,471
22.18097488,416
22.19410516,447
22.20723545,449
22.22036573,462
22.23349601,481
22.24662629,428
22.25975658,471
22.27288686,413
22.28601714,429
22.29914743,467
22.31227771,426
22.32540799,475
22.33853827,451
22.35166856,419
22.36479884,460
22.37792912,487
22.3910594,476
22.40418969,436
22.41731997,438
22.43045025,439
22.44358054,413
22.45671082,466
22.4698411,437
22.48297138,414
22.49610167,427
22.50923195,451
22.52236223,426
22.53549251,447
22.5486228,420
22.56175308,436
22.57488336,455
22.58801364,447
22.60114393,472
22.61427421,433
22.62740449,416
22.64053478,436
22.65366506,434
22.66679534,419
22.67992562,428
22.69305591,451
22.70618619,447
22.71931647,436
22.73244675,416
22.74557704,450
22.75870732,417
22.7718376,434
22.78496788,423
22.79809817,419
22.81122845,405
22.82435873,487
22.83748902,495
22.8506193,455
22.86374958,422
22.87687986,479
22.89001015,422
22.90314043,432
22.91627071,454
22.92940099,397
22.94253128,442
22.95566156,430
22.96879184,419
22.98192212,434
22.99505241,432
23.00818269,471
23.02131297,421
23.03444326,434
23.04757354,446
23.06070382,420
23.0738341,464
23.08696439,457
23.10009467,472
23.11322495,412
23.12635523,420
23.13948552,426
23.1526158,415
23.16574608,455
23.17887636,404
23.19200665,409
23.20513693,436
23.21826721,431
23.2313975,443
23.24452778,395
23.25765806,435
23.27078834,418
23.28391863,413
23.29704891,461
23.31017919,435
23.32330947,439
23.33643976,425
23.34957004,448
23.36270032,440
23.37583061,426
23.38896089,474
23.40209117,439
23.41522145,435
23.42835174,412
23.44148202,424
23.4546123,427
23.46774258,413
23.48087287,426
23.49400315,436
23.50713343,391
23.52026371,406
23.533394,441
23.54652428,472
23.55965456,468
23.57278485,407
23.58591513,473
23.59904541,460
23.61217569,436
23.62530598,437
23.63843626,453
23.65156654,424
23.66469682,470
23.67782711,439
23.69095739,437
23.70408767,402
23.71721795,424
23.73034824,475
23.74347852,441
23.7566088,439
23.76973909,438
23.78286937,454
23.79599965,489
23.80912993,448
23.82226022,472
23.8353905,449
23.84852078,434
23.86165106,402
23.87478135,461
23.88791163,447
23.90104191,458
23.91417219,482
23.92730248,496
23.94043276,442
23.95356304,465
23.96669333,401
23.97982361,487
23.99295389,479
24.00608417,516
24.01921446,460
24.03234474,430
24.04547502,435
24.0586053,444
24.07173559,436
24.08486587,447
24.09799615,486
24.11112643,441
24.12425672,467
24.137387,460
24.15051728,531
24.16364757,536
24.17677785,524
24.18990813,538
24.20303841,600
24.2161687,623
24.22929898,656
24.24242926,733
24.25555954,740
24.26868983,871
24.28182011,926
24.29495039,1122
24.30808068,1253
24.32121096,1475
24.33434124,1792
24.34747152,2015
24.36060181,2053
24.37373209,2056
24.38686237,1993
24.39999265,1858
24.41312294,1675
24.42625322,1563
24.4393835,1355
24.45251378,1146
24.46564407,970
24.47877435,778
24.49190463,672
24.50503492,629
24.5181652,607
24.53129548,513
24.54442576,519
24.55755605,540
24.57068633,494
24.58381661,493
24.59694689,474
24.61007718,468
24.62320746,431
24.63633774,454
24.64946802,461
24.66259831,468
24.67572859,426
24.68885887,418
24.70198916,470
24.71511944,453
24.72824972,432
24.74138,450
24.75451029,474
24.76764057,474
24.78077085,419
24.79390113,427
24.80703142,404
24.8201617,452
24.83329198,429
24.84642226,449
24.85955255,477
24.87268283,435
24.88581311,437
24.8989434,416
24.91207368,439
24.92520396,459
24.93833424,382
24.95146453,446
24.96459481,410
24.97772509,394
24.99085537,425
25.00398566,402
25.01711594,395
25.03024622,436
25.0433765,441
25.05650679,428
25.06963707,431
25.08276735,421
25.09589764,379
25.10902792,462
25.1221582,431
25.13528848,423
25.14841877,421
25.16154905,430
25.17467933,435
25.18780961,433
25.2009399,392
25.21407018,394
25.22720046,386
25.24033075,400
25.25346103,421
25.26659131,392
25.27972159,429
25.29285188,454
25.30598216,440
25.31911244,418
25.33224272,443
25.34537301,405
25.35850329,388
25.37163357,423
25.38476385,434
25.39789414,432
25.41102442,443
25.4241547,431
25.43728499,444
25.45041527,477
25.46354555,411
25.47667583,403
25.48980612,395
25.5029364,392
25.51606668,416
25.52919696,397
25.54232725,400
25.55545753,427
25.56858781,452
25.58171809,454
25.59484838,426
25.60797866,412
25.62110894,425
25.63423923,412
25.64736951,423
25.66049979,387
25.67363007,439
25.68676036,444
25.69989064,432
25.71302092,418
25.7261512,400
25.73928149,392
25.75241177,452
25.76554205,397
25.77867233,430
25.79180262,427
25.8049329,442
25.81806318,457
25.83119347,414
25.84432375,439
25.85745403,460
25.87058431,489
25.8837146,441
25.89684488,451
25.90997516,438
25.92310544,448
25.93623573,436
25.94936601,437
25.96249629,409
25.97562658,399
25.98875686,433
26.00188714,449
26.01501742,467
26.02814771,466
26.04127799,462
26.05440827,438
26.06753855,467
26.08066884,431
26.09379912,428
26.1069294,438
26.12005968,459
26.13318997,465
26.14632025,449
26.15945053,475
26.17258082,437
26.1857111,491
26.19884138,461
26.21197166,482
26.22510195,480
26.23823223,423
26.25136251,487
26.26449279,475
26.27762308,546
26.29075336,513
26.30388364,467
26.31701392,478
26.33014421,495
26.34327449,548
26.35640477,531
26.36953506,584
26.38266534,597
26.39579562,626
26.4089259,685
26.42205619,684
26.43518647,691
26.44831675,715
26.46144703,769
26.47457732,824
26.4877076,817
26.50083788,870
26.51396816,919
26.52709845,846
26.54022873,825
26.55335901,833
26.5664893,761
26.57961958,717
26.59274986,686
26.60588014,681
26.61901043,628
26.63214071,627
26.64527099,633
26.65840127,590
26.67153156,603
26.68466184,543
26.69779212,533
26.7109224,472
26.72405269,491
26.73718297,488
26.75031325,464
26.76344354,507
26.77657382,455
26.7897041,470
26.80283438,459
26.81596467,433
26.82909495,408
26.84222523,428
26.85535551,407
26.8684858,481
26.88161608,472
26.89474636,463
26.90787665,448
26.92100693,480
26.93413721,452
26.94726749,444
26.96039778,396
26.97352806,395
26.98665834,431
26.99978862,401
27.01291891,422
27.02604919,447
27.03917947,383
27.05230975,374
27.06544004,366
27.07857032,443
27.0917006,427
27.10483089,403
27.11796117,419
27.13109145,401
27.14422173,428
27.15735202,420
27.1704823,407
27.18361258,439
27.19674286,408
27.20987315,404
27.22300343,480
27.23613371,441
27.24926399,441
27.26239428,456
27.27552456,438
27.28865484,412
27.30178513,438
27.31491541,422
27.32804569,480
27.34117597,396
27.35430626,448
27.36743654,455
27.38056682,461
27.3936971,417
27.40682739,428
27.41995767,452
27.43308795,438
27.44621823,438
27.45934852,419
27.4724788,442
27.48560908,430
27.49873937,466
27.51186965,417
27.52499993,452
27.53813021,445
27.5512605,425
27.56439078,382
27.57752106,415
27.59065134,460
27.60378163,439
27.61691191,416
27.63004219,415
27.64317247,445
27.65630276,471
27.66943304,476
27.68256332,425
27.69569361,453
27.70882389,410
27.72195417,429
27.73508445,471
27.74821474,465
27.76134502,459
27.7744753,425
27.78760558,460
27.80073587,485
27.81386615,443
27.82699643,424
27.84012672,442
27.853257,453
27.86638728,477
27.87951756,461
27.89264785,481
27.90577813,515
27.91890841,534
27.93203869,569
27.94516898,521
27.95829926,553
27.97142954,641
27.98455982,631
27.99769011,718
28.01082039,771
28.02395067,780
28.03708096,889
28.05021124,1010
28.06334152,1089
28.0764718,1154
28.08960209,1393
28.10273237,1614
28.11586265,1959
28.12899293,2368
28.14212322,2984
28.1552535,3924
28.16838378,4851
28.18151406,5509
28.19464435,5513
28.20777463,4916
28.22090491,4091
28.2340352,3563
28.24716548,3371
28.26029576,3224
28.27342604,2651
28.28655633,2095
28.29968661,1532
28.31281689,1128
28.32594717,932
28.33907746,854
28.35220774,723
28.36533802,650
28.3784683,612
28.39159859,595
28.40472887,610
28.41785915,543
28.43098944,516
28.44411972,492
28.45725,455
28.47038028,483
28.48351057,529
28.49664085,482
28.50977113,470
28.52290141,440
28.5360317,458
28.54916198,447
28.56229226,415
28.57542254,443
28.58855283,459
28.60168311,420
28.61481339,397
28.62794368,432
28.64107396,420
28.65420424,430
28.66733452,377
28.68046481,410
28.69359509,396
28.70672537,449
28.71985565,394
28.73298594,400
28.74611622,424
28.7592465,413
28.77237679,403
28.78550707,422
28.79863735,435
28.81176763,370
28.82489792,401
28.8380282,409
28.85115848,365
28.86428876,354
28.87741905,391
28.89054933,355
28.90367961,387
28.91680989,381
28.92994018,375
28.94307046,382
28.95620074,369
28.96933103,400
28.98246131,396
28.99559159,405
29.00872187,405
29.02185216,385
29.03498244,421
29.04811272,410
29.061243,379
29.07437329,375
29.08750357,423
29.10063385,401
29.11376413,414
29.12689442,379
29.1400247,395
29.15315498,395
29.16628527,388
29.17941555,395
29.19254583,369
29.20567611,378
29.2188064,411
29.23193668,373
29.24506696,438
29.25819724,408
29.27132753,401
29.28445781,396
29.29758809,393
29.31071837,378
29.32384866,384
29.33697894,371
29.35010922,386
29.36323951,371
29.37636979,407
29.38950007,397
29.40263035,377
29.41576064,361
29.42889092,361
29.4420212,407
29.45515148,369
29.46828177,339
29.48141205,340
29.49454233,399
29.50767262,373
29.5208029,359
29.53393318,414
29.54706346,409
29.56019375,372
29.57332403,399
29.58645431,357
29.59958459,377
29.61271488,395
29.62584516,383
29.63897544,353
29.65210572,370
29.66523601,372
29.67836629,375
29.69149657,368
29.70462686,375
29.71775714,396
29.73088742,388
29.7440177,355
29.75714799,373
29.77027827,389
29.78340855,330
29.79653883,360
29.80966912,384
29.8227994,353
29.83592968,418
29.84905996,332
29.86219025,377
29.87532053,403
29.88845081,362
29.9015811,397
29.91471138,392
29.92784166,389
29.94097194,338
29.95410223,353
29.96723251,343
29.98036279,355
29.99349307,376
30.00662336,362
30.01975364,382
30.03288392,340
30.0460142,355
30.05914449,371
30.07227477,334
30.08540505,344
30.09853534,386
30.11166562,375
30.1247959,408
30.13792618,383
30.15105647,366
30.16418675,384
30.17731703,371
30.19044731,349
30.2035776,357
30.21670788,349
30.22983816,385
30.24296844,374
30.25609873,368
30.26922901,374
30.28235929,373
30.29548958,359
30.30861986,357
30.32175014,343
30.33488042,343
30.34801071,364
30.36114099,359
30.37427127,346
30.38740155,385
30.40053184,352
30.41366212,338
30.4267924,385
30.43992269,373
30.45305297,335
30.46618325,338
30.47931353,377
30.49244382,353
30.5055741,360
30.51870438,393
30.53183466,347
30.54496495,385
30.55809523,358
30.57122551,377
30.58435579,361
30.59748608,355
30.61061636,369
30.62374664,388
30.63687693,365
30.65000721,389
30.66313749,375
30.67626777,361
30.68939806,352
30.70252834,370
30.71565862,376
30.7287889,320
30.74191919,373
30.75504947,363
30.76817975,334
30.78131003,360
30.79444032,315
30.8075706,364
30.82070088,336
30.83383117,390
30.84696145,367
30.86009173,393
30.87322201,315
30.8863523,341
30.89948258,329
30.91261286,378
30.92574314,338
30.93887343,365
30.95200371,381
30.96513399,350
30.97826427,337
30.99139456,370
31.00452484,339
31.01765512,350
31.03078541,363
31.04391569,359
31.05704597,340
31.07017625,345
31.08330654,343
31.09643682,355
31.1095671,370
31.12269738,354
31.13582767,371
31.14895795,355
31.16208823,369
31.17521851,378
31.1883488,369
31.20147908,355
31.21460936,403
31.22773965,381
31.24086993,411
31.25400021,365
31.26713049,367
31.28026078,386
31.29339106,420
31.30652134,360
31.31965162,420
31.33278191,401
31.34591219,389
31.35904247,388
31.37217276,435
31.38530304,418
31.39843332,394
31.4115636,430
31.42469389,446
31.43782417,483
31.45095445,467
31.46408473,499
31.47721502,498
31.4903453,548
31.50347558,579
31.51660586,709
31.52973615,808
31.54286643,949
31.55599671,1123
31.569127,1288
31.58225728,1565
31.59538756,1627
31.60851784,1618
31.62164813,1542
31.63477841,1372
31.64790869,1248
31.66103897,1160
31.67416926,1109
31.68729954,979
31.70042982,959
31.7135601,835
31.72669039,690
31.73982067,605
31.75295095,503
31.76608124,465
31.77921152,393
31.7923418,381
31.80547208,408
31.81860237,416
31.83173265,409
31.84486293,382
31.85799321,368
31.8711235,320
31.88425378,351
31.89738406,361
31.91051434,359
31.92364463,370
31.93677491,337
31.94990519,339
31.96303548,344
31.97616576,349
31.98929604,370
32.00242632,358
32.01555661,364
32.02868689,354
32.04181717,313
32.05494745,356
32.06807774,310
32.08120802,323
32.0943383,363
32.10746858,364
32.12059887,366
32.13372915,343
32.14685943,393
32.15998972,344
32.17312,361
32.18625028,384
32.19938056,309
32.21251085,358
32.22564113,385
32.23877141,332
32.25190169,354
32.26503198,340
32.27816226,367
32.29129254,322
32.30442283,329
32.31755311,331
32.33068339,344
32.34381367,320
32.35694396,313
32.37007424,329
32.38320452,331
32.3963348,308
32.40946509,327
32.42259537,337
32.43572565,286
32.44885593,297
32.46198622,327
32.4751165,358
32.48824678,335
32.50137707,327
32.51450735,291
32.52763763,315
32.54076791,344
32.5538982,319
32.56702848,335
32.58015876,334
32.59328904,311
32.60641933,328
32.61954961,368
32.63267989,311
32.64581017,309
32.65894046,315
32.67207074,346
32.68520102,329
32.69833131,338
32.71146159,354
32.72459187,349
32.73772215,334
32.75085244,303
32.76398272,324
32.777113,313
32.79024328,366
32.80337357,335
32.81650385,304
32.82963413,329
32.84276441,318
32.8558947,327
32.86902498,326
32.88215526,317
32.89528555,351
32.90841583,336
32.92154611,335
32.93467639,311
32.94780668,323
32.96093696,312
32.97406724,312
32.98719752,351
33.00032781,342
33.01345809,309
33.02658837,337
33.03971866,305
33.05284894,283
33.06597922,353
33.0791095,351
33.09223979,282
33.10537007,327
33.11850035,326
33.13163063,349
33.14476092,309
33.1578912,332
33.17102148,330
33.18415176,301
33.19728205,344
33.21041233,317
33.22354261,365
33.2366729,302
33.24980318,318
33.26293346,344
33.27606374,337
33.28919403,321
33.30232431,320
33.31545459,320
33.32858487,333
33.34171516,319
33.35484544,330
33.36797572,318
33.381106,301
33.39423629,302
33.40736657,323
33.42049685,317
33.43362714,331
33.44675742,334
33.4598877,306
33.47301798,342
33.48614827,322
33.49927855,334
33.51240883,329
33.52553911,332
33.5386694,318
33.55179968,358
33.56492996,346
33.57806024,351
33.59119053,331
33.60432081,333
33.61745109,347
33.63058138,379
33.64371166,389
33.65684194,375
33.66997222,380
33.68310251,382
33.69623279,387
33.70936307,432
33.72249335,451
33.73562364,418
33.74875392,430
33.7618842,413
33.77501448,427
33.78814477,369
33.80127505,371
33.81440533,422
33.82753562,365
33.8406659,379
33.85379618,397
33.86692646,392
33.88005675,313
33.89318703,363
33.90631731,342
33.91944759,352
33.93257788,351
33.94570816,341
33.95883844,319
33.97196873,325
33.98509901,376
33.99822929,348
34.01135957,367
34.02448986,323
34.03762014,332
34.05075042,323
34.0638807,278
34.07701099,321
34.09014127,333
34.10327155,313
34.11640183,349
34.12953212,320
34.1426624,324
34.15579268,318
34.16892297,290
34.18205325,322
34.19518353,285
34.20831381,332
34.2214441,334
34.23457438,299
34.24770466,300
34.26083494,320
34.27396523,330
34.28709551,295
34.30022579,285
34.31335607,310
34.32648636,316
34.33961664,325
34.35274692,329
34.36587721,272
34.37900749,325
34.39213777,308
34.40526805,311
34.41839834,336
34.43152862,311
34.4446589,311
34.45778918,296
34.47091947,283
34.48404975,301
34.49718003,338
34.51031031,307
34.5234406,339
34.53657088,336
34.54970116,352
34.56283145,331
34.57596173,319
34.58909201,325
34.60222229,349
34.61535258,404
34.62848286,407
34.64161314,437
34.65474342,502
34.66787371,566
34.68100399,626
34.69413427,673
34.70726455,690
34.72039484,668
34.73352512,611
34.7466554,636
34.75978569,595
34.77291597,569
34.78604625,599
34.79917653,538
34.81230682,525
34.8254371,498
34.83856738,441
34.85169766,434
34.86482795,348
34.87795823,330
34.89108851,322
34.9042188,290
34.91734908,327
34.93047936,318
34.94360964,332
34.95673993,279
34.96987021,296
34.98300049,297
34.99613077,314
35.00926106,303
35.02239134,290
35.03552162,293
35.0486519,308
35.06178219,275
35.07491247,318
35.08804275,241
35.10117304,273
35.11430332,262
35.1274336,339
35.14056388,283
35.15369417,239
35.16682445,307
35.17995473,272
35.19308501,336
35.2062153,313
35.21934558,265
35.23247586,238
35.24560614,304
35.25873643,326
35.27186671,307
35.28499699,267
35.29812728,276
35.31125756,279
35.32438784,261
35.33751812,293
35.35064841,262
35.36377869,335
35.37690897,285
35.39003925,288
35.40316954,303
35.41629982,281
35.4294301,276
35.44256038,304
35.45569067,319
35.46882095,271
35.48195123,279
35.49508152,283
35.5082118,297
35.52134208,297
35.53447236,297
35.54760265,278
35.56073293,238
35.57386321,272
35.58699349,300
35.60012378,298
35.61325406,278
35.62638434,265
35.63951462,296
35.65264491,314
35.66577519,302
35.67890547,302
35.69203576,288
35.70516604,263
35.71829632,268
35.7314266,258
35.74455689,266
35.75768717,309
35.77081745,319
35.78394773,255
35.79707802,262
35.8102083,273
35.82333858,283
35.83646887,294
35.84959915,289
35.86272943,256
35.87585971,282
35.88899,260
35.90212028,285
35.91525056,285
35.92838084,278
35.94151113,249
35.95464141,290
35.96777169,269
35.98090197,292
35.99403226,289
36.00716254,284
36.02029282,271
36.03342311,293
36.04655339,256
36.05968367,242
36.07281395,287
36.08594424,261
36.09907452,284
36.1122048,285
36.12533508,265
36.13846537,302
36.15159565,284
36.16472593,304
36.17785621,269
36.1909865,266
36.20411678,249
36.21724706,301
36.23037735,265
36.24350763,267
36.25663791,274
36.26976819,257
36.28289848,256
36.29602876,289
36.30915904,280
36.32228932,290
36.33541961,281
36.34854989,263
36.36168017,281
36.37481045,261
36.38794074,293
36.40107102,280
36.4142013,261
36.42733159,272
36.44046187,310
36.45359215,274
36.46672243,266
36.47985272,306
36.492983,245
36.50611328,266
36.51924356,309
36.53237385,269
36.54550413,296
36.55863441,248
36.5717647,275
36.58489498,260
36.59802526,262
36.61115554,289
36.62428583,285
36.63741611,237
36.65054639,267
36.66367667,248
36.67680696,231
36.68993724,277
36.70306752,265
36.7161978,291
36.72932809,286
36.74245837,278
36.75558865,249
36.76871894,260
36.78184922,259
36.7949795,291
36.80810978,269
36.82124007,284
36.83437035,301
36.84750063,273
36.86063091,290
36.8737612,267
36.88689148,258
36.90002176,286
36.91315204,266
36.92628233,294
36.93941261,296
36.95254289,238
36.96567318,246
36.97880346,245
36.99193374,264
37.00506402,278
37.01819431,261
37.03132459,256
37.04445487,275
37.05758515,275
37.07071544,298
37.08384572,259
37.096976,288
37.11010628,241
37.12323657,262
37.13636685,267
37.14949713,284
37.16262742,226
37.1757577,237
37.18888798,269
37.20201826,290
37.21514855,255
37.22827883,294
37.24140911,289
37.25453939,255
37.26766968,276
37.28079996,246
37.29393024,283
37.30706052,290
37.32019081,273
37.33332109,271
37.34645137,302
37.35958166,258
37.37271194,268
37.38584222,293
37.3989725,258
37.41210279,277
37.42523307,300
37.43836335,282
37.45149363,284
37.46462392,260
37.4777542,302
37.49088448,291
37.50401477,280
37.51714505,312
37.53027533,304
37.54340561,313
37.5565359,333
37.56966618,315
37.58279646,362
37.59592674,377
37.60905703,360
37.62218731,361
37.63531759,396
37.64844787,436
37.66157816,431
37.67470844,446
37.68783872,526
37.70096901,535
37.71409929,613
37.72722957,670
37.74035985,694
37.75349014,721
37.76662042,771
37.7797507,790
37.79288098,822
37.80601127,793
37.81914155,833
37.83227183,800
37.84540211,779
37.8585324,760
37.87166268,747
37.88479296,727
37.89792325,674
37.91105353,612
37.92418381,572
37.93731409,600
37.95044438,515
37.96357466,519
37.97670494,484
37.98983522,455
38.00296551,407
38.01609579,426
38.02922607,375
38.04235635,366
38.05548664,374
38.06861692,319
38.0817472,297
38.09487749,300
38.10800777,327
38.12113805,304
38.13426833,291
38.14739862,286
38.1605289,290
38.17365918,306
38.18678946,266
38.19991975,291
38.21305003,223
38.22618031,245
38.23931059,242
38.25244088,272
38.26557116,279
38.27870144,297
38.29183173,286
38.30496201,287
38.31809229,274
38.33122257,249
38.34435286,272
38.35748314,301
38.37061342,244
38.3837437,223
38.39687399,249
38.41000427,237
38.42313455,258
38.43626484,219
38.44939512,292
38.4625254,258
38.47565568,229
38.48878597,232
38.50191625,256
38.51504653,257
38.52817681,236
38.5413071,234
38.55443738,245
38.56756766,255
38.58069794,212
38.59382823,237
38.60695851,264
38.62008879,242
38.63321908,235
38.64634936,216
38.65947964,243
38.67260992,273
38.68574021,269
38.69887049,247
38.71200077,247
38.72513105,258
38.73826134,242
38.75139162,275
38.7645219,227
38.77765218,240
38.79078247,244
38.80391275,272
38.81704303,273
38.83017332,233
38.8433036,243
38.85643388,269
38.86956416,226
38.88269445,243
38.89582473,266
38.90895501,271
38.92208529,243
38.93521558,269
38.94834586,269
38.96147614,262
38.97460642,240
38.98773671,258
39.00086699,232
39.01399727,263
39.02712756,247
39.04025784,264
39.05338812,240
39.0665184,244
39.07964869,224
39.09277897,221
39.10590925,235
39.11903953,267
39.13216982,244
39.1453001,221
39.15843038,238
39.17156066,244
39.18469095,255
39.19782123,256
39.21095151,258
39.2240818,234
39.23721208,256
39.25034236,229
39.26347264,209
39.27660293,239
39.28973321,235
39.30286349,262
39.31599377,255
39.32912406,227
39.34225434,239
39.35538462,234
39.36851491,281
39.38164519,228
39.39477547,274
39.40790575,236
39.42103604,246
39.43416632,235
39.4472966,235
39.46042688,285
39.47355717,215
39.48668745,226
39.49981773,269
39.51294801,229
39.5260783,274
39.53920858,229
39.55233886,236
39.56546915,282
39.57859943,240
39.59172971,285
39.60485999,249
39.61799028,263
39.63112056,248
39.64425084,262
39.65738112,236
39.67051141,221
39.68364169,235
39.69677197,256
39.70990225,239
39.72303254,278
39.73616282,273
39.7492931,246
39.76242339,240
39.77555367,261
39.78868395,302
39.80181423,206
39.81494452,242
39.8280748,220
39.84120508,239
39.85433536,245
39.86746565,212
39.88059593,238
39.89372621,266
39.90685649,242
39.91998678,262
39.93311706,248
39.94624734,236
39.95937763,279
39.97250791,244
39.98563819,292
39.99876847,260
40.01189876,270
40.02502904,287
40.03815932,268
40.0512896,283
40.06441989,275
40.07755017,278
40.09068045,279
40.10381074,279
40.11694102,287
40.1300713,313
40.14320158,304
40.15633187,332
40.16946215,350
40.18259243,358
40.19572271,414
40.208853,514
40.22198328,544
40.23511356,646
40.24824384,779
40.26137413,821
40.27450441,932
40.28763469,941
40.30076498,978
40.31389526,941
40.32702554,904
40.34015582,828
40.35328611,794
40.36641639,782
40.37954667,756
40.39267695,724
40.40580724,684
40.41893752,564
40.4320678,525
40.44519808,492
40.45832837,396
40.47145865,408
40.48458893,348
40.49771922,311
40.5108495,322
40.52397978,298
40.53711006,279
40.55024035,287
40.56337063,276
40.57650091,235
40.58963119,247
40.60276148,268
40.61589176,256
40.62902204,228
40.64215232,224
40.65528261,269
40.66841289,246
40.68154317,244
40.69467346,258
40.70780374,277
40.72093402,227
40.7340643,273
40.74719459,238
40.76032487,229
40.77345515,227
40.78658543,223
40.79971572,261
40.812846,246
40.82597628,246
40.83910656,228
40.85223685,249
40.86536713,273
40.87849741,231
40.8916277,255
40.90475798,237
40.91788826,221
40.93101854,210
40.94414883,256
40.95727911,255
40.97040939,237
40.98353967,276
40.99666996,238
41.00980024,228
41.02293052,235
41.03606081,238
41.04919109,241
41.06232137,215
41.07545165,235
41.08858194,242
41.10171222,246
41.1148425,223
41.12797278,261
41.14110307,216
41.15423335,227
41.16736363,244
41.18049391,222
41.1936242,218
41.20675448,221
41.21988476,236
41.23301505,236
41.24614533,240
41.25927561,220
41.27240589,186
41.28553618,238
41.29866646,271
41.31179674,226
41.32492702,257
41.33805731,222
41.35118759,240
41.36431787,248
41.37744815,215
41.39057844,234
41.40370872,205
41.416839,236
41.42996929,214
41.44309957,225
41.45622985,257
41.46936013,247
41.48249042,239
41.4956207,222
41.50875098,241
41.52188126,223
41.53501155,219
41.54814183,250
41.56127211,232
41.57440239,215
41.58753268,239
41.60066296,230
41.61379324,223
41.62692353,245
41.64005381,263
41.65318409,231
41.66631437,243
41.67944466,232
41.69257494,234
41.70570522,231
41.7188355,236
41.73196579,210
41.74509607,235
41.75822635,246
41.77135663,244
41.78448692,238
41.7976172,231
41.81074748,225
41.82387777,245
41.83700805,245
41.85013833,224
41.86326861,238
41.8763989,239
41.88952918,238
41.90265946,244
41.91578974,243
41.92892003,234
41.94205031,238
41.95518059,214
41.96831088,244
41.98144116,191
41.99457144,225
42.00770172,277
42.02083201,223
42.03396229,242
42.04709257,217
42.06022285,248
42.07335314,214
42.08648342,216
42.0996137,226
42.11274398,208
42.12587427,238
42.13900455,229
42.15213483,236
42.16526512,242
42.1783954,226
42.19152568,248
42.20465596,206
42.21778625,272
42.23091653,228
42.24404681,249
42.25717709,243
42.27030738,271
42.28343766,195
42.29656794,203
42.30969822,234
42.32282851,273
42.33595879,259
42.34908907,246
42.36221936,211
42.37534964,235
42.38847992,261
42.4016102,247
42.41474049,264
42.42787077,268
42.44100105,230
42.45413133,280
42.46726162,227
42.4803919,275
42.49352218,217
42.50665246,273
42.51978275,250
42.53291303,233
42.54604331,262
42.5591736,269
42.57230388,263
42.58543416,241
42.59856444,250
42.61169473,236
42.62482501,257
42.63795529,281
42.65108557,274
42.66421586,291
42.67734614,259
42.69047642,277
42.7036067,341
42.71673699,307
42.72986727,293
42.74299755,375
42.75612784,455
42.76925812,432
42.7823884,550
42.79551868,674
42.80864897,792
42.82177925,841
42.83490953,896
42.84803981,898
42.8611701,879
42.87430038,829
42.88743066,777
42.90056095,743
42.91369123,747
42.92682151,707
42.93995179,732
42.95308208,679
42.96621236,627
42.97934264,576
42.99247292,523
43.00560321,467
43.01873349,422
43.03186377,435
43.04499405,340
43.05812434,340
43.07125462,310
43.0843849,299
43.09751519,257
43.11064547,287
43.12377575,267
43.13690603,255
43.15003632,247
43.1631666,259
43.17629688,271
43.18942716,209
43.20255745,236
43.21568773,258
43.22881801,199
43.24194829,215
43.25507858,256
43.26820886,239
43.28133914,229
43.29446943,240
43.30759971,240
43.32072999,231
43.33386027,248
43.34699056,242
43.36012084,255
43.37325112,266
43.3863814,264
43.39951169,220
43.41264197,215
43.42577225,212
43.43890253,235
43.45203282,210
43.4651631,221
43.47829338,210
43.49142367,225
43.50455395,248
43.51768423,223
43.53081451,239
43.5439448,208
43.55707508,233
43.57020536,224
43.58333564,233
43.59646593,223
43.60959621,213
43.62272649,247
43.63585678,195
43.64898706,228
43.66211734,264
43.67524762,244
43.68837791,202
43.70150819,265
43.71463847,238
43.72776875,230
43.74089904,246
43.75402932,206
43.7671596,201
43.78028988,216
43.79342017,192
43.80655045,226
43.81968073,198
43.83281102,275
43.8459413,224
43.85907158,236
43.87220186,193
43.88533215,228
43.89846243,237
43.91159271,248
43.92472299,238
43.93785328,206
43.95098356,223
43.96411384,207
43.97724412,257
43.99037441,206
44.00350469,225
44.01663497,197
44.02976526,204
44.04289554,200
44.05602582,206
44.0691561,233
44.08228639,198
44.09541667,231
44.10854695,176
44.12167723,208
44.13480752,214
44.1479378,223
44.16106808,201
44.17419836,208
44.18732865,236
44.20045893,216
44.21358921,227
44.2267195,245
44.23984978,235
44.25298006,228
44.26611034,236
44.27924063,218
44.29237091,229
44.30550119,192
44.31863147,239
44.33176176,215
44.34489204,199
44.35802232,218
44.3711526,226
44.38428289,202
44.39741317,246
44.41054345,219
44.42367374,211
44.43680402,212
44.4499343,199
44.46306458,206
44.47619487,196
44.48932515,227
44.50245543,212
44.51558571,228
44.528716,235
44.54184628,204
44.55497656,215
44.56810685,223
44.58123713,258
44.59436741,209
44.60749769,206
44.62062798,212
44.63375826,227
44.64688854,239
44.66001882,213
44.67314911,221
44.68627939,209
44.69940967,216
44.71253995,214
44.72567024,227
44.73880052,190
44.7519308,212
44.76506109,220
44.77819137,199
44.79132165,194
44.80445193,210
44.81758222,219
44.8307125,237
44.84384278,210
44.85697306,202
44.87010335,202
44.88323363,208
44.89636391,192
44.90949419,207
44.92262448,222
44.93575476,210
44.94888504,213
44.96201533,217
44.97514561,201
44.98827589,205
45.00140617,234
45.01453646,183
45.02766674,210
45.04079702,175
45.0539273,207
45.06705759,216
45.08018787,210
45.09331815,217
45.10644843,219
45.11957872,220
45.132709,206
45.14583928,226
45.15896957,271
45.17209985,232
45.18523013,189
45.19836041,204
45.2114907,243
45.22462098,241
45.23775126,231
45.25088154,219
45.26401183,213
45.27714211,232
45.29027239,212
45.30340267,230
45.31653296,214
45.32966324,214
45.34279352,216
45.35592381,207
45.36905409,222
45.38218437,196
45.39531465,188
45.40844494,194
45.42157522,189
45.4347055,205
45.44783578,231
45.46096607,212
45.47409635,198
45.48722663,201
45.50035692,201
45.5134872,198
45.52661748,193
45.53974776,188
45.55287805,209
45.56600833,214
45.57913861,207
45.59226889,223
45.60539918,221
45.61852946,195
45.63165974,216
45.64479002,216
45.65792031,196
45.67105059,255
45.68418087,201
45.69731116,176
45.71044144,193
45.72357172,208
45.736702,175
45.74983229,193
45.76296257,186
45.77609285,205
45.78922313,192
45.80235342,190
45.8154837,223
45.82861398,205
45.84174426,214
45.85487455,222
45.86800483,176
45.88113511,205
45.8942654,174
45.90739568,198
45.92052596,210
45.93365624,179
45.94678653,202
45.95991681,192
45.97304709,197
45.98617737,200
45.99930766,168
46.01243794,225
46.02556822,204
46.0386985,220
46.05182879,186
46.06495907,222
46.07808935,206
46.09121964,168
46.10434992,205
46.1174802,204
46.13061048,172
46.14374077,189
46.15687105,210
46.17000133,218
46.18313161,203
46.1962619,207
46.20939218,201
46.22252246,194
46.23565274,212
46.24878303,230
46.26191331,201
46.27504359,203
46.28817388,166
46.30130416,217
46.31443444,209
46.32756472,193
46.34069501,199
46.35382529,199
46.36695557,208
46.38008585,222
46.39321614,215
46.40634642,197
46.4194767,175
46.43260699,182
46.44573727,186
46.45886755,206
46.47199783,226
46.48512812,201
46.4982584,226
46.51138868,183
46.52451896,166
46.53764925,171
46.55077953,201
46.56390981,190
46.57704009,182
46.59017038,200
46.60330066,184
46.61643094,198
46.62956123,218
46.64269151,203
46.65582179,192
46.66895207,219
46.68208236,196
46.69521264,200
46.70834292,201
46.7214732,207
46.73460349,202
46.74773377,205
46.76086405,220
46.77399433,214
46.78712462,201
46.8002549,190
46.81338518,172
46.82651547,194
46.83964575,222
46.85277603,191
46.86590631,205
46.8790366,198
46.89216688,215
46.90529716,172
46.91842744,202
46.93155773,200
46.94468801,183
46.95781829,183
46.97094857,193
46.98407886,200
46.99720914,223
47.01033942,197
47.02346971,207
47.03659999,211
47.04973027,183
47.06286055,215
47.07599084,186
47.08912112,212
47.1022514,196
47.11538168,179
47.12851197,204
47.14164225,167
47.15477253,207
47.16790282,201
47.1810331,194
47.19416338,185
47.20729366,189
47.22042395,164
47.23355423,217
47.24668451,206
47.25981479,201
47.27294508,219
47.28607536,186
47.29920564,207
47.31233592,223
47.32546621,216
47.33859649,194
47.35172677,170
47.36485706,207
47.37798734,206
47.39111762,191
47.4042479,220
47.41737819,198
47.43050847,202
47.44363875,195
47.45676903,203
47.46989932,189
47.4830296,190
47.49615988,189
47.50929016,222
47.52242045,198
47.53555073,197
47.54868101,217
47.5618113,201
47.57494158,223
47.58807186,234
47.60120214,208
47.61433243,193
47.62746271,221
47.64059299,237
47.65372327,234
47.66685356,227
47.67998384,261
47.69311412,187
47.7062444,243
47.71937469,214
47.73250497,203
47.74563525,194
47.75876554,203
47.77189582,208
47.7850261,211
47.79815638,191
47.81128667,210
47.82441695,185
47.83754723,194
47.85067751,178
47.8638078,208
47.87693808,171
47.89006836,183
47.90319864,230
47.91632893,181
47.92945921,191
47.94258949,161
47.95571978,213
47.96885006,208
47.98198034,213
47.99511062,219
48.00824091,194
48.02137119,201
48.03450147,195
48.04763175,172
48.06076204,193
48.07389232,179
48.0870226,204
48.10015289,189
48.11328317,200
48.12641345,214
48.13954373,199
48.15267402,183
48.1658043,178
48.17893458,195
48.19206486,200
48.20519515,198
48.21832543,192
48.23145571,161
48.24458599,195
48.25771628,199
48.27084656,197
48.28397684,195
48.29710713,201
48.31023741,174
48.32336769,208
48.33649797,202
48.34962826,207
48.36275854,179
48.37588882,181
48.3890191,248
48.40214939,204
48.41527967,190
48.42840995,200
48.44154023,229
48.45467052,208
48.4678008,186
48.48093108,168
48.49406137,193
48.50719165,193
48.52032193,189
48.53345221,182
48.5465825,173
48.55971278,193
48.57284306,197
48.58597334,203
48.59910363,154
48.61223391,182
48.62536419,190
48.63849447,188
48.65162476,193
48.66475504,176
48.67788532,193
48.69101561,194
48.70414589,205
48.71727617,186
48.73040645,189
48.74353674,191
48.75666702,172
48.7697973,196
48.78292758,200
48.79605787,208
48.80918815,223
48.82231843,195
48.83544871,186
48.848579,199
48.86170928,168
48.87483956,206
48.88796985,197
48.90110013,192
48.91423041,227
48.92736069,213
48.94049098,172
48.95362126,190
48.96675154,184
48.97988182,174
48.99301211,197
49.00614239,188
49.01927267,188
49.03240296,160
49.04553324,196
49.05866352,187
49.0717938,214
49.08492409,195
49.09805437,177
49.11118465,190
49.12431493,187
49.13744522,201
49.1505755,182
49.16370578,176
49.17683606,195
49.18996635,183
49.20309663,179
49.21622691,187
49.2293572,215
49.24248748,198
49.25561776,196
49.26874804,205
49.28187833,172
49.29500861,182
49.30813889,180
49.32126917,192
49.33439946,192
49.34752974,194
49.36066002,184
49.3737903,203
49.38692059,202
49.40005087,185
49.41318115,198
49.42631144,198
49.43944172,181
49.452572,174
49.46570228,206
49.47883257,194
49.49196285,204
49.50509313,185
49.51822341,178
49.5313537,194
49.54448398,184
49.55761426,205
49.57074454,224
49.58387483,225
49.59700511,206
49.61013539,206
49.62326568,199
49.63639596,197
49.64952624,195
49.66265652,213
49.67578681,193
49.68891709,232
49.70204737,196
49.71517765,208
49.72830794,210
49.74143822,242
49.7545685,236
49.76769878,281
49.78082907,297
49.79395935,304
49.80708963,380
49.82021992,419
49.8333502,443
49.84648048,510
49.85961076,566
49.87274105,571
49.88587133,610
49.89900161,626
49.91213189,611
49.92526218,647
49.93839246,635
49.95152274,586
49.96465303,547
49.97778331,560
49.99091359,506
