Angle,Intensity
5.00656514,750
5.019695423,796
5.032825705,797
5.045955988,787
5.059086271,766
5.072216553,749
5.085346836,773
5.098477119,777
5.111607401,749
5.124737684,752
5.137867967,742
5.150998249,758
5.164128532,756
5.177258815,734
5.190389097,781
5.20351938,714
5.216649663,760
5.229779946,825
5.242910228,758
5.256040511,763
5.269170794,745
5.282301076,716
5.295431359,718
5.308561642,731
5.321691924,748
5.334822207,728
5.34795249,762
5.361082772,715
5.374213055,693
5.387343338,801
5.40047362,763
5.413603903,731
5.426734186,743
5.439864468,734
5.452994751,747
5.466125034,706
5.479255316,819
5.492385599,773
5.505515882,735
5.518646164,781
5.531776447,773
5.54490673,708
5.558037012,707
5.571167295,742
5.584297578,754
5.59742786,728
5.610558143,721
5.623688426,734
5.636818708,801
5.649948991,715
5.663079274,764
5.676209557,738
5.689339839,724
5.702470122,700
5.715600405,717
5.728730687,737
5.74186097,745
5.754991253,760
5.768121535,742
5.781251818,741
5.794382101,735
5.807512383,731
5.820642666,771
5.833772949,724
5.846903231,757
5.860033514,762
5.873163797,742
5.886294079,761
5.899424362,709
5.912554645,730
5.925684927,709
5.93881521,704
5.951945493,691
5.965075775,724
5.978206058,746
5.991336341,740
6.004466623,698
6.017596906,716
6.030727189,783
6.043857471,809
6.056987754,728
6.070118037,744
6.083248319,724
6.096378602,717
6.109508885,710
6.122639168,748
6.13576945,719
6.148899733,743
6.162030016,753
6.175160298,745
6.188290581,744
6.201420864,706
6.214551146,737
6.227681429,727
6.240811712,767
6.253941994,739
6.267072277,743
6.28020256,748
6.293332842,755
6.306463125,783
6.319593408,766
6.33272369,723
6.345853973,688
6.358984256,745
6.372114538,704
6.385244821,772
6.398375104,711
6.411505386,737
6.424635669,754
6.437765952,708
6.450896234,663
6.464026517,714
6.4771568,741
6.490287082,735
6.503417365,725
6.516547648,684
6.52967793,733
6.542808213,685
6.555938496,666
6.569068779,708
6.582199061,722
6.595329344,712
6.608459627,681
6.621589909,714
6.634720192,736
6.647850475,713
6.660980757,713
6.67411104,727
6.687241323,719
6.700371605,685
6.713501888,677
6.726632171,735
6.739762453,718
6.752892736,729
6.766023019,724
6.779153301,728
6.792283584,745
6.805413867,686
6.818544149,681
6.831674432,722
6.844804715,736
6.857934997,737
6.87106528,711
6.884195563,695
6.897325845,666
6.910456128,716
6.923586411,721
6.936716693,691
6.949846976,684
6.962977259,750
6.976107541,697
6.989237824,719
7.002368107,683
7.01549839,696
7.028628672,711
7.041758955,720
7.054889238,686
7.06801952,710
7.081149803,704
7.094280086,688
7.107410368,716
7.120540651,683
7.133670934,746
7.146801216,653
7.159931499,740
7.173061782,727
7.186192064,678
7.199322347,692
7.21245263,685
7.225582912,714
7.238713195,702
7.251843478,705
7.26497376,635
7.278104043,674
7.291234326,734
7.304364608,726
7.317494891,725
7.330625174,705
7.343755456,701
7.356885739,696
7.370016022,699
7.383146304,744
7.396276587,690
7.40940687,705
7.422537152,742
7.435667435,680
7.448797718,728
7.461928001,676
7.475058283,691
7.488188566,709
7.501318849,689
7.514449131,706
7.527579414,704
7.540709697,727
7.553839979,720
7.566970262,730
7.580100545,676
7.593230827,749
7.60636111,726
7.619491393,671
7.632621675,706
7.645751958,725
7.658882241,680
7.672012523,700
7.685142806,704
7.698273089,686
7.711403371,680
7.724533654,687
7.737663937,730
7.750794219,693
7.763924502,671
7.777054785,738
7.790185067,671
7.80331535,656
7.816445633,750
7.829575915,671
7.842706198,638
7.855836481,707
7.868966763,655
7.882097046,684
7.895227329,727
7.908357612,685
7.921487894,710
7.934618177,667
7.94774846,739
7.960878742,719
7.974009025,717
7.987139308,717
8.00026959,702
8.013399873,707
8.026530156,699
8.039660438,687
8.052790721,683
8.065921004,721
8.079051286,711
8.092181569,723
8.105311852,711
8.118442134,698
8.131572417,704
8.1447027,698
8.157832982,682
8.170963265,680
8.184093548,690
8.19722383,672
8.210354113,623
8.223484396,664
8.236614678,677
8.249744961,653
8.262875244,644
8.276005526,694
8.289135809,701
8.302266092,698
8.315396375,710
8.328526657,680
8.34165694,641
8.354787223,697
8.367917505,709
8.381047788,703
8.394178071,691
8.407308353,711
8.420438636,661
8.433568919,649
8.446699201,646
8.459829484,654
8.472959767,702
8.486090049,693
8.499220332,667
8.512350615,665
8.525480897,615
8.53861118,689
8.551741463,660
8.564871745,628
8.578002028,608
8.591132311,651
8.604262593,684
8.617392876,694
8.630523159,635
8.643653441,659
8.656783724,681
8.669914007,633
8.683044289,679
8.696174572,731
8.709304855,687
8.722435137,627
8.73556542,671
8.748695703,660
8.761825986,650
8.774956268,668
8.788086551,630
8.801216834,669
8.814347116,685
8.827477399,675
8.840607682,685
8.853737964,667
8.866868247,705
8.87999853,631
8.893128812,681
8.906259095,628
8.919389378,671
8.93251966,691
8.945649943,684
8.958780226,634
8.971910508,668
8.985040791,680
8.998171074,660
9.011301356,637
9.024431639,675
9.037561922,711
9.050692204,648
9.063822487,650
9.07695277,628
9.090083052,706
9.103213335,686
9.116343618,662
9.1294739,687
9.142604183,677
9.155734466,675
9.168864748,647
9.181995031,662
9.195125314,642
9.208255597,638
9.221385879,618
9.234516162,664
9.247646445,656
9.260776727,644
9.27390701,651
9.287037293,678
9.300167575,670
9.313297858,641
9.326428141,689
9.339558423,623
9.352688706,654
9.365818989,628
9.378949271,652
9.392079554,600
9.405209837,675
9.418340119,634
9.431470402,640
9.444600685,613
9.457730967,630
9.47086125,677
9.483991533,657
9.497121815,626
9.510252098,643
9.523382381,619
9.536512663,640
9.549642946,633
9.562773229,683
9.575903511,634
9.589033794,621
9.602164077,647
9.615294359,604
9.628424642,596
9.641554925,629
9.654685208,633
9.66781549,676
9.680945773,644
9.694076056,669
9.707206338,596
9.720336621,631
9.733466904,571
9.746597186,640
9.759727469,676
9.772857752,670
9.785988034,602
9.799118317,609
9.8122486,641
9.825378882,633
9.838509165,657
9.851639448,625
9.86476973,666
9.877900013,621
9.891030296,604
9.904160578,632
9.917290861,674
9.930421144,620
9.943551426,628
9.956681709,607
9.969811992,621
9.982942274,670
9.996072557,668
10.00920284,604
10.022333122,640
10.035463405,616
10.048593688,637
10.06172397,628
10.074854253,618
10.087984536,602
10.101114819,591
10.114245101,658
10.127375384,638
10.140505667,683
10.153635949,624
10.166766232,590
10.179896515,643
10.193026797,615
10.20615708,616
10.219287363,592
10.232417645,632
10.245547928,612
10.258678211,575
10.271808493,616
10.284938776,622
10.298069059,624
10.311199341,592
10.324329624,587
10.337459907,609
10.350590189,577
10.363720472,597
10.376850755,646
10.389981037,639
10.40311132,591
10.416241603,615
10.429371885,592
10.442502168,600
10.455632451,598
10.468762733,674
10.481893016,644
10.495023299,620
10.508153581,602
10.521283864,639
10.534414147,634
10.54754443,672
10.560674712,650
10.573804995,565
10.586935278,584
10.60006556,571
10.613195843,648
10.626326126,622
10.639456408,631
10.652586691,621
10.665716974,571
10.678847256,610
10.691977539,613
10.705107822,588
10.718238104,611
10.731368387,594
10.74449867,599
10.757628952,588
10.770759235,607
10.783889518,638
10.7970198,639
10.810150083,562
10.823280366,604
10.836410648,566
10.849540931,585
10.862671214,558
10.875801496,608
10.888931779,643
10.902062062,566
10.915192344,604
10.928322627,574
10.94145291,574
10.954583192,578
10.967713475,634
10.980843758,610
10.993974041,635
11.007104323,570
11.020234606,582
11.033364889,532
11.046495171,578
11.059625454,572
11.072755737,573
11.085886019,613
11.099016302,623
11.112146585,570
11.125276867,613
11.13840715,628
11.151537433,641
11.164667715,578
11.177797998,658
11.190928281,591
11.204058563,581
11.217188846,620
11.230319129,603
11.243449411,562
11.256579694,583
11.269709977,588
11.282840259,574
11.295970542,583
11.309100825,625
11.322231107,650
11.33536139,607
11.348491673,535
11.361621955,590
11.374752238,563
11.387882521,630
11.401012803,611
11.414143086,588
11.427273369,560
11.440403652,561
11.453533934,591
11.466664217,632
11.4797945,615
11.492924782,570
11.506055065,546
11.519185348,630
11.53231563,616
11.545445913,591
11.558576196,578
11.571706478,613
11.584836761,606
11.597967044,602
11.611097326,564
11.624227609,607
11.637357892,611
11.650488174,613
11.663618457,581
11.67674874,616
11.689879022,612
11.703009305,598
11.716139588,593
11.72926987,580
11.742400153,616
11.755530436,590
11.768660718,604
11.781791001,602
11.794921284,577
11.808051566,592
11.821181849,577
11.834312132,589
11.847442415,618
11.860572697,591
11.87370298,624
11.886833263,655
11.899963545,583
11.913093828,571
11.926224111,635
11.939354393,631
11.952484676,625
11.965614959,618
11.978745241,611
11.991875524,571
12.005005807,566
12.018136089,612
12.031266372,611
12.044396655,568
12.057526937,593
12.07065722,626
12.083787503,584
12.096917785,597
12.110048068,589
12.123178351,583
12.136308633,627
12.149438916,582
12.162569199,627
12.175699481,637
12.188829764,618
12.201960047,605
12.215090329,614
12.228220612,678
12.241350895,623
12.254481177,602
12.26761146,632
12.280741743,652
12.293872026,577
12.307002308,582
12.320132591,601
12.333262874,573
12.346393156,592
12.359523439,591
12.372653722,578
12.385784004,585
12.398914287,593
12.41204457,578
12.425174852,571
12.438305135,628
12.451435418,578
12.4645657,569
12.477695983,573
12.490826266,558
12.503956548,561
12.517086831,571
12.530217114,579
12.543347396,597
12.556477679,554
12.569607962,590
12.582738244,576
12.595868527,582
12.60899881,595
12.622129092,597
12.635259375,589
12.648389658,599
12.66151994,586
12.674650223,582
12.687780506,616
12.700910788,616
12.714041071,574
12.727171354,607
12.740301637,603
12.753431919,573
12.766562202,524
12.779692485,541
12.792822767,573
12.80595305,580
12.819083333,580
12.832213615,565
12.845343898,594
12.858474181,636
12.871604463,570
12.884734746,542
12.897865029,546
12.910995311,571
12.924125594,565
12.937255877,609
12.950386159,585
12.963516442,558
12.976646725,567
12.989777007,524
13.00290729,580
13.016037573,597
13.029167855,537
13.042298138,552
13.055428421,543
13.068558703,555
13.081688986,615
13.094819269,603
13.107949551,586
13.121079834,569
13.134210117,584
13.147340399,633
13.160470682,585
13.173600965,537
13.186731248,608
13.19986153,556
13.212991813,603
13.226122096,618
13.239252378,597
13.252382661,606
13.265512944,547
13.278643226,572
13.291773509,586
13.304903792,531
13.318034074,585
13.331164357,595
13.34429464,625
13.357424922,596
13.370555205,644
13.383685488,570
13.39681577,553
13.409946053,578
13.423076336,574
13.436206618,606
13.449336901,631
13.462467184,628
13.475597466,634
13.488727749,640
13.501858032,614
13.514988314,658
13.528118597,710
13.54124888,688
13.554379162,656
13.567509445,740
13.580639728,744
13.59377001,717
13.606900293,756
13.620030576,792
13.633160859,790
13.646291141,786
13.659421424,810
13.672551707,924
13.685681989,857
13.698812272,1000
13.711942555,919
13.725072837,1050
13.73820312,1085
13.751333403,1112
13.764463685,1100
13.777593968,1217
13.790724251,1283
13.803854533,1406
13.816984816,1494
13.830115099,1670
13.843245381,1748
13.856375664,1921
13.869505947,2131
13.882636229,2297
13.895766512,2650
13.908896795,2873
13.922027077,3397
13.93515736,3860
13.948287643,4432
13.961417925,5218
13.974548208,6435
13.987678491,7303
14.000808773,8585
14.013939056,9610
14.027069339,9178
14.040199621,7899
14.053329904,6350
14.066460187,4694
14.07959047,3223
14.092720752,2071
14.105851035,1513
14.118981318,1254
14.1321116,1143
14.145241883,1029
14.158372166,930
14.171502448,914
14.184632731,846
14.197763014,846
14.210893296,779
14.224023579,699
14.237153862,746
14.250284144,708
14.263414427,751
14.27654471,734
14.289674992,654
14.302805275,666
14.315935558,641
14.32906584,645
14.342196123,660
14.355326406,638
14.368456688,591
14.381586971,601
14.394717254,628
14.407847536,612
14.420977819,628
14.434108102,646
14.447238384,631
14.460368667,648
14.47349895,606
14.486629232,606
14.499759515,624
14.512889798,602
14.526020081,604
14.539150363,615
14.552280646,640
14.565410929,551
14.578541211,591
14.591671494,581
14.604801777,598
14.617932059,579
14.631062342,591
14.644192625,638
14.657322907,582
14.67045319,524
14.683583473,561
14.696713755,610
14.709844038,567
14.722974321,578
14.736104603,563
14.749234886,557
14.762365169,603
14.775495451,576
14.788625734,618
14.801756017,570
14.814886299,551
14.828016582,567
14.841146865,615
14.854277147,548
14.86740743,572
14.880537713,541
14.893667995,534
14.906798278,610
14.919928561,565
14.933058844,573
14.946189126,581
14.959319409,547
14.972449692,570
14.985579974,559
14.998710257,549
15.01184054,543
15.024970822,561
15.038101105,562
15.051231388,555
15.06436167,513
15.077491953,583
15.090622236,539
15.103752518,549
15.116882801,579
15.130013084,561
15.143143366,612
15.156273649,585
15.169403932,562
15.182534214,548
15.195664497,562
15.20879478,561
15.221925062,557
15.235055345,561
15.248185628,588
15.26131591,594
15.274446193,597
15.287576476,569
15.300706758,568
15.313837041,532
15.326967324,593
15.340097606,551
15.353227889,567
15.366358172,563
15.379488455,610
15.392618737,546
15.40574902,519
15.418879303,522
15.432009585,549
15.445139868,591
15.458270151,524
15.471400433,558
15.484530716,539
15.497660999,510
15.510791281,541
15.523921564,582
15.537051847,522
15.550182129,555
15.563312412,561
15.576442695,569
15.589572977,530
15.60270326,542
15.615833543,498
15.628963825,511
15.642094108,541
15.655224391,496
15.668354673,530
15.681484956,556
15.694615239,540
15.707745521,522
15.720875804,522
15.734006087,567
15.747136369,584
15.760266652,562
15.773396935,522
15.786527217,531
15.7996575,596
15.812787783,527
15.825918066,556
15.839048348,491
15.852178631,563
15.865308914,553
15.878439196,594
15.891569479,547
15.904699762,562
15.917830044,514
15.930960327,539
15.94409061,521
15.957220892,570
15.970351175,545
15.983481458,520
15.99661174,547
16.009742023,544
16.022872306,581
16.036002588,521
16.049132871,514
16.062263154,551
16.075393436,552
16.088523719,554
16.101654002,517
16.114784284,505
16.127914567,541
16.14104485,545
16.154175132,586
16.167305415,485
16.180435698,558
16.19356598,546
16.206696263,548
16.219826546,511
16.232956828,504
16.246087111,527
16.259217394,525
16.272347677,532
16.285477959,546
16.298608242,584
16.311738525,546
16.324868807,535
16.33799909,542
16.351129373,541
16.364259655,554
16.377389938,518
16.390520221,508
16.403650503,507
16.416780786,530
16.429911069,532
16.443041351,497
16.456171634,552
16.469301917,549
16.482432199,502
16.495562482,534
16.508692765,568
16.521823047,518
16.53495333,507
16.548083613,522
16.561213895,560
16.574344178,544
16.587474461,509
16.600604743,550
16.613735026,523
16.626865309,564
16.639995591,514
16.653125874,513
16.666256157,491
16.679386439,573
16.692516722,520
16.705647005,536
16.718777288,541
16.73190757,526
16.745037853,568
16.758168136,502
16.771298418,518
16.784428701,572
16.797558984,496
16.810689266,546
16.823819549,481
16.836949832,579
16.850080114,539
16.863210397,487
16.87634068,494
16.889470962,504
16.902601245,530
16.915731528,532
16.92886181,541
16.941992093,499
16.955122376,489
16.968252658,508
16.981382941,519
16.994513224,523
17.007643506,502
17.020773789,519
17.033904072,495
17.047034354,540
17.060164637,536
17.07329492,510
17.086425202,503
17.099555485,493
17.112685768,475
17.12581605,535
17.138946333,570
17.152076616,472
17.165206899,519
17.178337181,448
17.191467464,510
17.204597747,460
17.217728029,499
17.230858312,486
17.243988595,496
17.257118877,531
17.27024916,472
17.283379443,519
17.296509725,472
17.309640008,522
17.322770291,519
17.335900573,473
17.349030856,460
17.362161139,484
17.375291421,556
17.388421704,539
17.401551987,568
17.414682269,481
17.427812552,481
17.440942835,500
17.454073117,497
17.4672034,480
17.480333683,515
17.493463965,482
17.506594248,497
17.519724531,535
17.532854813,487
17.545985096,578
17.559115379,546
17.572245661,482
17.585375944,541
17.598506227,494
17.61163651,498
17.624766792,511
17.637897075,537
17.651027358,510
17.66415764,521
17.677287923,519
17.690418206,500
17.703548488,470
17.716678771,487
17.729809054,454
17.742939336,554
17.756069619,517
17.769199902,502
17.782330184,518
17.795460467,528
17.80859075,508
17.821721032,513
17.834851315,426
17.847981598,475
17.86111188,491
17.874242163,468
17.887372446,513
17.900502728,455
17.913633011,483
17.926763294,486
17.939893576,498
17.953023859,490
17.966154142,476
17.979284424,465
17.992414707,501
18.00554499,511
18.018675273,517
18.031805555,521
18.044935838,452
18.058066121,469
18.071196403,513
18.084326686,476
18.097456969,497
18.110587251,467
18.123717534,485
18.136847817,497
18.149978099,474
18.163108382,467
18.176238665,487
18.189368947,530
18.20249923,504
18.215629513,459
18.228759795,507
18.241890078,440
18.255020361,512
18.268150643,460
18.281280926,463
18.294411209,480
18.307541491,465
18.320671774,471
18.333802057,498
18.346932339,480
18.360062622,502
18.373192905,486
18.386323187,502
18.39945347,476
18.412583753,502
18.425714035,484
18.438844318,456
18.451974601,502
18.465104884,481
18.478235166,454
18.491365449,510
18.504495732,472
18.517626014,483
18.530756297,481
18.54388658,459
18.557016862,462
18.570147145,480
18.583277428,457
18.59640771,478
18.609537993,479
18.622668276,437
18.635798558,467
18.648928841,491
18.662059124,489
18.675189406,497
18.688319689,479
18.701449972,469
18.714580254,452
18.727710537,446
18.74084082,487
18.753971102,465
18.767101385,456
18.780231668,452
18.79336195,443
18.806492233,444
18.819622516,476
18.832752798,492
18.845883081,465
18.859013364,474
18.872143646,478
18.885273929,472
18.898404212,458
18.911534495,448
18.924664777,482
18.93779506,467
18.950925343,494
18.964055625,476
18.977185908,482
18.990316191,474
19.003446473,457
19.016576756,503
19.029707039,444
19.042837321,495
19.055967604,474
19.069097887,453
19.082228169,453
19.095358452,477
19.108488735,481
19.121619017,496
19.1347493,480
19.147879583,458
19.161009865,468
19.174140148,484
19.187270431,507
19.200400713,445
19.213530996,480
19.226661279,444
19.239791561,466
19.252921844,443
19.266052127,499
19.279182409,444
19.292312692,497
19.305442975,467
19.318573257,491
19.33170354,457
19.344833823,466
19.357964106,518
19.371094388,462
19.384224671,436
19.397354954,440
19.410485236,459
19.423615519,418
19.436745802,430
19.449876084,452
19.463006367,463
19.47613665,488
19.489266932,490
19.502397215,529
19.515527498,443
19.52865778,503
19.541788063,483
19.554918346,499
19.568048628,458
19.581178911,493
19.594309194,523
19.607439476,510
19.620569759,473
19.633700042,488
19.646830324,525
19.659960607,524
19.67309089,526
19.686221172,518
19.699351455,499
19.712481738,505
19.72561202,493
19.738742303,538
19.751872586,537
19.765002868,554
19.778133151,597
19.791263434,579
19.804393717,629
19.817523999,689
19.830654282,757
19.843784565,790
19.856914847,806
19.87004513,824
19.883175413,784
19.896305695,786
19.909435978,701
19.922566261,665
19.935696543,604
19.948826826,548
19.961957109,542
19.975087391,540
19.988217674,492
20.001347957,482
20.014478239,468
20.027608522,475
20.040738805,484
20.053869087,437
20.06699937,421
20.080129653,516
20.093259935,496
20.106390218,471
20.119520501,425
20.132650783,426
20.145781066,441
20.158911349,436
20.172041631,448
20.185171914,481
20.198302197,477
20.211432479,434
20.224562762,462
20.237693045,420
20.250823328,465
20.26395361,458
20.277083893,451
20.290214176,426
20.303344458,527
20.316474741,460
20.329605024,499
20.342735306,456
20.355865589,439
20.368995872,487
20.382126154,448
20.395256437,474
20.40838672,449
20.421517002,438
20.434647285,500
20.447777568,458
20.46090785,489
20.474038133,438
20.487168416,417
20.500298698,442
20.513428981,451
20.526559264,482
20.539689546,464
20.552819829,472
20.565950112,416
20.579080394,465
20.592210677,448
20.60534096,436
20.618471242,438
20.631601525,436
20.644731808,459
20.65786209,469
20.670992373,421
20.684122656,471
20.697252939,441
20.710383221,451
20.723513504,474
20.736643787,470
20.749774069,394
20.762904352,459
20.776034635,444
20.789164917,452
20.8022952,441
20.815425483,442
20.828555765,469
20.841686048,441
20.854816331,452
20.867946613,443
20.881076896,462
20.894207179,427
20.907337461,450
20.920467744,451
20.933598027,455
20.946728309,490
20.959858592,447
20.972988875,419
20.986119157,447
20.99924944,442
21.012379723,419
21.025510005,437
21.038640288,433
21.051770571,464
21.064900853,458
21.078031136,442
21.091161419,442
21.104291702,442
21.117421984,481
21.130552267,460
21.14368255,428
21.156812832,436
21.169943115,462
21.183073398,416
21.19620368,437
21.209333963,469
21.222464246,472
21.235594528,439
21.248724811,449
21.261855094,482
21.274985376,418
21.288115659,431
21.301245942,451
21.314376224,430
21.327506507,449
21.34063679,443
21.353767072,441
21.366897355,453
21.380027638,455
21.39315792,443
21.406288203,445
21.419418486,409
21.432548768,426
21.445679051,456
21.458809334,434
21.471939616,441
21.485069899,460
21.498200182,426
21.511330464,445
21.524460747,448
21.53759103,500
21.550721313,434
21.563851595,484
21.576981878,466
21.590112161,430
21.603242443,471
21.616372726,463
21.629503009,466
21.642633291,465
21.655763574,444
21.668893857,406
21.682024139,420
21.695154422,425
21.708284705,425
21.721414987,438
21.73454527,453
21.747675553,398
21.760805835,411
21.773936118,462
21.787066401,473
21.800196683,453
21.813326966,431
21.826457249,449
21.839587531,423
21.852717814,433
21.865848097,451
21.878978379,423
21.892108662,446
21.905238945,429
21.918369227,435
21.93149951,476
21.944629793,451
21.957760075,504
21.970890358,492
21.984020641,457
21.997150924,437
22.010281206,470
22.023411489,472
22.036541772,454
22.049672054,446
22.062802337,450
22.07593262,416
22.089062902,428
22.102193185,439
22.115323468,424
22.12845375,432
22.141584033,419
22.154714316,429
22.167844598,425
22.180974881,448
22.194105164,416
22.207235446,477
22.220365729,429
22.233496012,459
22.246626294,453
22.259756577,438
22.27288686,431
22.286017142,387
22.299147425,447
22.312277708,461
22.32540799,455
22.338538273,427
22.351668556,430
22.364798838,466
22.377929121,456
22.391059404,462
22.404189686,433
22.417319969,486
22.430450252,467
22.443580535,472
22.456710817,431
22.4698411,422
22.482971383,424
22.496101665,430
22.509231948,426
22.522362231,421
22.535492513,473
22.548622796,462
22.561753079,415
22.574883361,411
22.588013644,433
22.601143927,450
22.614274209,420
22.627404492,463
22.640534775,435
22.653665057,433
22.66679534,436
22.679925623,452
22.693055905,428
22.706186188,428
22.719316471,426
22.732446753,446
22.745577036,424
22.758707319,443
22.771837601,431
22.784967884,425
22.798098167,433
22.811228449,422
22.824358732,455
22.837489015,418
22.850619297,453
22.86374958,448
22.876879863,388
22.890010146,394
22.903140428,461
22.916270711,420
22.929400994,453
22.942531276,419
22.955661559,401
22.968791842,427
22.981922124,435
22.995052407,389
23.00818269,454
23.021312972,411
23.034443255,444
23.047573538,405
23.06070382,477
23.073834103,432
23.086964386,454
23.100094668,425
23.113224951,465
23.126355234,426
23.139485516,448
23.152615799,414
23.165746082,417
23.178876364,406
23.192006647,403
23.20513693,424
23.218267212,425
23.231397495,444
23.244527778,441
23.25765806,459
23.270788343,420
23.283918626,447
23.297048908,439
23.310179191,405
23.323309474,433
23.336439757,417
23.349570039,396
23.362700322,458
23.375830605,436
23.388960887,440
23.40209117,434
23.415221453,454
23.428351735,387
23.441482018,420
23.454612301,407
23.467742583,426
23.480872866,460
23.494003149,456
23.507133431,414
23.520263714,453
23.533393997,418
23.546524279,442
23.559654562,397
23.572784845,437
23.585915127,451
23.59904541,444
23.612175693,470
23.625305975,429
23.638436258,452
23.651566541,451
23.664696823,490
23.677827106,410
23.690957389,461
23.704087671,450
23.717217954,452
23.730348237,425
23.743478519,408
23.756608802,470
23.769739085,467
23.782869368,454
23.79599965,453
23.809129933,422
23.822260216,408
23.835390498,438
23.848520781,427
23.861651064,413
23.874781346,432
23.887911629,407
23.901041912,438
23.914172194,449
23.927302477,454
23.94043276,458
23.953563042,431
23.966693325,436
23.979823608,415
23.99295389,425
24.006084173,447
24.019214456,462
24.032344738,442
24.045475021,431
24.058605304,476
24.071735586,438
24.084865869,487
24.097996152,498
24.111126434,485
24.124256717,475
24.137387,538
24.150517282,492
24.163647565,485
24.176777848,491
24.18990813,555
24.203038413,522
24.216168696,573
24.229298979,565
24.242429261,726
24.255559544,712
24.268689827,736
24.281820109,804
24.294950392,909
24.308080675,1070
24.321210957,1293
24.33434124,1529
24.347471523,1738
24.360601805,1930
24.373732088,2083
24.386862371,2143
24.399992653,2157
24.413122936,1930
24.426253219,1851
24.439383501,1667
24.452513784,1445
24.465644067,1365
24.478774349,1093
24.491904632,936
24.505034915,825
24.518165197,718
24.53129548,639
24.544425763,654
24.557556045,546
24.570686328,511
24.583816611,453
24.596946893,494
24.610077176,534
24.623207459,462
24.636337742,501
24.649468024,477
24.662598307,456
24.67572859,450
24.688858872,461
24.701989155,511
24.715119438,487
24.72824972,475
24.741380003,415
24.754510286,443
24.767640568,439
24.780770851,464
24.793901134,422
24.807031416,453
24.820161699,430
24.833291982,429
24.846422264,401
24.859552547,415
24.87268283,415
24.885813112,418
24.898943395,430
24.912073678,441
24.92520396,416
24.938334243,436
24.951464526,411
24.964594808,468
24.977725091,426
24.990855374,415
25.003985656,422
25.017115939,406
25.030246222,396
25.043376504,463
25.056506787,432
25.06963707,454
25.082767353,384
25.095897635,423
25.109027918,465
25.122158201,460
25.135288483,428
25.148418766,413
25.161549049,414
25.174679331,410
25.187809614,407
25.200939897,450
25.214070179,425
25.227200462,406
25.240330745,418
25.253461027,454
25.26659131,442
25.279721593,407
25.292851875,390
25.305982158,435
25.319112441,444
25.332242723,426
25.345373006,436
25.358503289,453
25.371633571,472
25.384763854,421
25.397894137,439
25.411024419,444
25.424154702,453
25.437284985,454
25.450415267,468
25.46354555,446
25.476675833,414
25.489806115,462
25.502936398,436
25.516066681,397
25.529196964,401
25.542327246,400
25.555457529,425
25.568587812,418
25.581718094,450
25.594848377,456
25.60797866,439
25.621108942,428
25.634239225,443
25.647369508,437
25.66049979,418
25.673630073,425
25.686760356,435
25.699890638,496
25.713020921,419
25.726151204,420
25.739281486,472
25.752411769,401
25.765542052,480
25.778672334,474
25.791802617,438
25.8049329,381
25.818063182,475
25.831193465,438
25.844323748,452
25.85745403,452
25.870584313,410
25.883714596,427
25.896844878,434
25.909975161,417
25.923105444,408
25.936235726,430
25.949366009,519
25.962496292,439
25.975626575,449
25.988756857,461
26.00188714,426
26.015017423,412
26.028147705,452
26.041277988,438
26.054408271,448
26.067538553,443
26.080668836,454
26.093799119,436
26.106929401,417
26.120059684,427
26.133189967,447
26.146320249,480
26.159450532,481
26.172580815,459
26.185711097,469
26.19884138,463
26.211971663,461
26.225101945,495
26.238232228,493
26.251362511,461
26.264492793,452
26.277623076,496
26.290753359,481
26.303883641,510
26.317013924,522
26.330144207,543
26.343274489,533
26.356404772,571
26.369535055,522
26.382665337,569
26.39579562,622
26.408925903,630
26.422056186,738
26.435186468,713
26.448316751,767
26.461447034,813
26.474577316,803
26.487707599,924
26.500837882,906
26.513968164,993
26.527098447,961
26.54022873,978
26.553359012,977
26.566489295,952
26.579619578,837
26.59274986,861
26.605880143,774
26.619010426,760
26.632140708,711
26.645270991,628
26.658401274,625
26.671531556,564
26.684661839,595
26.697792122,534
26.710922404,518
26.724052687,511
26.73718297,493
26.750313252,487
26.763443535,444
26.776573818,480
26.7897041,520
26.802834383,461
26.815964666,460
26.829094948,463
26.842225231,468
26.855355514,409
26.868485797,418
26.881616079,459
26.894746362,439
26.907876645,428
26.921006927,451
26.93413721,438
26.947267493,438
26.960397775,439
26.973528058,458
26.986658341,455
26.999788623,455
27.012918906,472
27.026049189,450
27.039179471,445
27.052309754,456
27.065440037,390
27.078570319,435
27.091700602,475
27.104830885,423
27.117961167,423
27.13109145,433
27.144221733,421
27.157352015,428
27.170482298,427
27.183612581,432
27.196742863,447
27.209873146,401
27.223003429,374
27.236133711,429
27.249263994,427
27.262394277,434
27.275524559,458
27.288654842,390
27.301785125,433
27.314915408,386
27.32804569,454
27.341175973,443
27.354306256,440
27.367436538,469
27.380566821,439
27.393697104,403
27.406827386,409
27.419957669,426
27.433087952,443
27.446218234,408
27.459348517,458
27.4724788,446
27.485609082,414
27.498739365,428
27.511869648,425
27.52499993,442
27.538130213,444
27.551260496,465
27.564390778,448
27.577521061,443
27.590651344,456
27.603781626,414
27.616911909,432
27.630042192,472
27.643172474,445
27.656302757,421
27.66943304,485
27.682563322,444
27.695693605,403
27.708823888,500
27.721954171,470
27.735084453,447
27.748214736,434
27.761345019,429
27.774475301,453
27.787605584,448
27.800735867,443
27.813866149,442
27.826996432,471
27.840126715,427
27.853256997,437
27.86638728,453
27.879517563,495
27.892647845,513
27.905778128,506
27.918908411,524
27.932038693,520
27.945168976,539
27.958299259,537
27.971429541,622
27.984559824,637
27.997690107,614
28.010820389,677
28.023950672,738
28.037080955,789
28.050211237,886
28.06334152,987
28.076471803,1053
28.089602085,1224
28.102732368,1341
28.115862651,1559
28.128992933,1896
28.142123216,2374
28.155253499,2917
28.168383782,3608
28.181514064,4622
28.194644347,5373
28.20777463,5634
28.220904912,5088
28.234035195,4209
28.247165478,3748
28.26029576,3514
28.273426043,3327
28.286556326,2955
28.299686608,2235
28.312816891,1672
28.325947174,1308
28.339077456,1032
28.352207739,872
28.365338022,768
28.378468304,701
28.391598587,665
28.40472887,643
28.417859152,601
28.430989435,600
28.444119718,526
28.45725,487
28.470380283,494
28.483510566,489
28.496640848,532
28.509771131,514
28.522901414,487
28.536031696,464
28.549161979,459
28.562292262,432
28.575422544,442
28.588552827,445
28.60168311,439
28.614813393,434
28.627943675,427
28.641073958,463
28.654204241,446
28.667334523,426
28.680464806,434
28.693595089,420
28.706725371,421
28.719855654,388
28.732985937,418
28.746116219,415
28.759246502,406
28.772376785,404
28.785507067,404
28.79863735,425
28.811767633,407
28.824897915,388
28.838028198,400
28.851158481,427
28.864288763,416
28.877419046,385
28.890549329,379
28.903679611,415
28.916809894,425
28.929940177,411
28.943070459,363
28.956200742,391
28.969331025,387
28.982461307,390
28.99559159,400
29.008721873,371
29.021852155,394
29.034982438,380
29.048112721,420
29.061243004,396
29.074373286,380
29.087503569,364
29.100633852,381
29.113764134,426
29.126894417,403
29.1400247,364
29.153154982,371
29.166285265,374
29.179415548,349
29.19254583,394
29.205676113,363
29.218806396,374
29.231936678,370
29.245066961,356
29.258197244,367
29.271327526,384
29.284457809,398
29.297588092,376
29.310718374,389
29.323848657,387
29.33697894,390
29.350109222,401
29.363239505,412
29.376369788,370
29.38950007,403
29.402630353,377
29.415760636,394
29.428890918,403
29.442021201,378
29.455151484,363
29.468281766,421
29.481412049,346
29.494542332,349
29.507672615,403
29.520802897,376
29.53393318,379
29.547063463,409
29.560193745,378
29.573324028,365
29.586454311,380
29.599584593,384
29.612714876,376
29.625845159,377
29.638975441,379
29.652105724,393
29.665236007,369
29.678366289,360
29.691496572,354
29.704626855,370
29.717757137,373
29.73088742,379
29.744017703,384
29.757147985,388
29.770278268,395
29.783408551,355
29.796538833,406
29.809669116,359
29.822799399,388
29.835929681,385
29.849059964,370
29.862190247,322
29.875320529,370
29.888450812,349
29.901581095,365
29.914711377,363
29.92784166,371
29.940971943,403
29.954102226,344
29.967232508,358
29.980362791,376
29.993493074,380
30.006623356,366
30.019753639,385
30.032883922,381
30.046014204,355
30.059144487,371
30.07227477,347
30.085405052,370
30.098535335,334
30.111665618,313
30.1247959,319
30.137926183,348
30.151056466,379
30.164186748,375
30.177317031,391
30.190447314,359
30.203577596,343
30.216707879,331
30.229838162,331
30.242968444,331
30.256098727,386
30.26922901,330
30.282359292,357
30.295489575,372
30.308619858,341
30.32175014,388
30.334880423,334
30.348010706,351
30.361140988,346
30.374271271,373
30.387401554,372
30.400531837,359
30.413662119,355
30.426792402,366
30.439922685,358
30.453052967,364
30.46618325,374
30.479313533,354
30.492443815,376
30.505574098,361
30.518704381,353
30.531834663,387
30.544964946,372
30.558095229,364
30.571225511,374
30.584355794,340
30.597486077,402
30.610616359,379
30.623746642,365
30.636876925,339
30.650007207,366
30.66313749,353
30.676267773,358
30.689398055,369
30.702528338,357
30.715658621,382
30.728788903,335
30.741919186,386
30.755049469,388
30.768179751,326
30.781310034,340
30.794440317,382
30.8075706,390
30.820700882,370
30.833831165,367
30.846961448,362
30.86009173,331
30.873222013,381
30.886352296,339
30.899482578,347
30.912612861,353
30.925743144,383
30.938873426,360
30.952003709,362
30.965133992,380
30.978264274,333
30.991394557,340
31.00452484,354
31.017655122,354
31.030785405,347
31.043915688,333
31.05704597,349
31.070176253,358
31.083306536,353
31.096436818,368
31.109567101,322
31.122697384,382
31.135827666,338
31.148957949,353
31.162088232,346
31.175218514,350
31.188348797,384
31.20147908,371
31.214609362,363
31.227739645,355
31.240869928,331
31.254000211,385
31.267130493,367
31.280260776,384
31.293391059,356
31.306521341,373
31.319651624,358
31.332781907,387
31.345912189,363
31.359042472,352
31.372172755,375
31.385303037,374
31.39843332,419
31.411563603,411
31.424693885,365
31.437824168,393
31.450954451,421
31.464084733,444
31.477215016,440
31.490345299,481
31.503475581,484
31.516605864,580
31.529736147,606
31.542866429,672
31.555996712,756
31.569126995,871
31.582257277,1088
31.59538756,1147
31.608517843,1332
31.621648125,1324
31.634778408,1299
31.647908691,1251
31.661038973,1137
31.674169256,1028
31.687299539,1001
31.700429822,898
31.713560104,821
31.726690387,729
31.73982067,650
31.752950952,559
31.766081235,470
31.779211518,486
31.7923418,402
31.805472083,426
31.818602366,406
31.831732648,369
31.844862931,352
31.857993214,370
31.871123496,391
31.884253779,365
31.897384062,339
31.910514344,354
31.923644627,353
31.93677491,380
31.949905192,356
31.963035475,339
31.976165758,356
31.98929604,348
32.002426323,357
32.015556606,355
32.028686888,321
32.041817171,316
32.054947454,352
32.068077736,335
32.081208019,354
32.094338302,363
32.107468584,284
32.120598867,345
32.13372915,358
32.146859433,344
32.159989715,378
32.173119998,326
32.186250281,331
32.199380563,314
32.212510846,363
32.225641129,350
32.238771411,305
32.251901694,355
32.265031977,331
32.278162259,315
32.291292542,348
32.304422825,351
32.317553107,339
32.33068339,339
32.343813673,376
32.356943955,342
32.370074238,333
32.383204521,314
32.396334803,318
32.409465086,328
32.422595369,364
32.435725651,323
32.448855934,292
32.461986217,324
32.475116499,296
32.488246782,362
32.501377065,334
32.514507347,312
32.52763763,321
32.540767913,284
32.553898195,321
32.567028478,332
32.580158761,325
32.593289044,300
32.606419326,298
32.619549609,289
32.632679892,308
32.645810174,337
32.658940457,313
32.67207074,304
32.685201022,326
32.698331305,299
32.711461588,335
32.72459187,332
32.737722153,333
32.750852436,359
32.763982718,355
32.777113001,346
32.790243284,327
32.803373566,324
32.816503849,322
32.829634132,291
32.842764414,288
32.855894697,322
32.86902498,334
32.882155262,344
32.895285545,318
32.908415828,336
32.92154611,298
32.934676393,289
32.947806676,318
32.960936958,306
32.974067241,348
32.987197524,292
33.000327806,314
33.013458089,335
33.026588372,336
33.039718655,335
33.052848937,346
33.06597922,338
33.079109503,321
33.092239785,300
33.105370068,306
33.118500351,304
33.131630633,354
33.144760916,359
33.157891199,318
33.171021481,305
33.184151764,345
33.197282047,311
33.210412329,334
33.223542612,327
33.236672895,320
33.249803177,332
33.26293346,316
33.276063743,321
33.289194025,317
33.302324308,335
33.315454591,357
33.328584873,334
33.341715156,340
33.354845439,315
33.367975721,310
33.381106004,327
33.394236287,307
33.407366569,322
33.420496852,319
33.433627135,365
33.446757417,331
33.4598877,312
33.473017983,364
33.486148266,377
33.499278548,342
33.512408831,348
33.525539114,377
33.538669396,327
33.551799679,324
33.564929962,358
33.578060244,339
33.591190527,399
33.60432081,362
33.617451092,421
33.630581375,390
33.643711658,385
33.65684194,395
33.669972223,387
33.683102506,453
33.696232788,426
33.709363071,440
33.722493354,438
33.735623636,443
33.748753919,419
33.761884202,413
33.775014484,464
33.788144767,443
33.80127505,439
33.814405332,423
33.827535615,447
33.840665898,430
33.85379618,421
33.866926463,385
33.880056746,391
33.893187028,387
33.906317311,371
33.919447594,366
33.932577877,352
33.945708159,336
33.958838442,333
33.971968725,363
33.985099007,357
33.99822929,332
34.011359573,361
34.024489855,377
34.037620138,337
34.050750421,316
34.063880703,319
34.077010986,319
34.090141269,324
34.103271551,297
34.116401834,332
34.129532117,313
34.142662399,331
34.155792682,303
34.168922965,338
34.182053247,295
34.19518353,324
34.208313813,309
34.221444095,332
34.234574378,341
34.247704661,282
34.260834943,318
34.273965226,295
34.287095509,299
34.300225791,324
34.313356074,296
34.326486357,323
34.33961664,333
34.352746922,302
34.365877205,314
34.379007488,334
34.39213777,338
34.405268053,327
34.418398336,364
34.431528618,310
34.444658901,327
34.457789184,329
34.470919466,306
34.484049749,346
34.497180032,335
34.510310314,316
34.523440597,298
34.53657088,280
34.549701162,336
34.562831445,324
34.575961728,321
34.58909201,305
34.602222293,372
34.615352576,339
34.628482858,370
34.641613141,391
34.654743424,419
34.667873706,450
34.681003989,459
34.694134272,547
34.707264554,625
34.720394837,582
34.73352512,631
34.746655402,603
34.759785685,607
34.772915968,603
34.786046251,538
34.799176533,541
34.812306816,516
34.825437099,507
34.838567381,502
34.851697664,458
34.864827947,489
34.877958229,424
34.891088512,382
34.904218795,353
34.917349077,363
34.93047936,341
34.943609643,336
34.956739925,272
34.969870208,305
34.983000491,326
34.996130773,300
35.009261056,290
35.022391339,341
35.035521621,315
35.048651904,300
35.061782187,310
35.074912469,297
35.088042752,302
35.101173035,304
35.114303317,307
35.1274336,273
35.140563883,285
35.153694165,306
35.166824448,333
35.179954731,311
35.193085013,309
35.206215296,264
35.219345579,309
35.232475862,297
35.245606144,281
35.258736427,290
35.27186671,289
35.284996992,306
35.298127275,297
35.311257558,282
35.32438784,274
35.337518123,270
35.350648406,266
35.363778688,275
35.376908971,273
35.390039254,271
35.403169536,274
35.416299819,298
35.429430102,274
35.442560384,266
35.455690667,287
35.46882095,287
35.481951232,290
35.495081515,272
35.508211798,291
35.52134208,263
35.534472363,277
35.547602646,267
35.560732928,288
35.573863211,249
35.586993494,312
35.600123776,293
35.613254059,264
35.626384342,305
35.639514624,285
35.652644907,294
35.66577519,301
35.678905473,300
35.692035755,288
35.705166038,263
35.718296321,268
35.731426603,289
35.744556886,281
35.757687169,263
35.770817451,298
35.783947734,279
35.797078017,291
35.810208299,280
35.823338582,290
35.836468865,302
35.849599147,268
35.86272943,294
35.875859713,269
35.888989995,283
35.902120278,246
35.915250561,247
35.928380843,273
35.941511126,248
35.954641409,259
35.967771691,231
35.980901974,289
35.994032257,274
36.007162539,296
36.020292822,255
36.033423105,258
36.046553387,291
36.05968367,289
36.072813953,272
36.085944235,282
36.099074518,233
36.112204801,266
36.125335084,285
36.138465366,291
36.151595649,278
36.164725932,287
36.177856214,275
36.190986497,233
36.20411678,272
36.217247062,261
36.230377345,282
36.243507628,267
36.25663791,304
36.269768193,277
36.282898476,307
36.296028758,276
36.309159041,295
36.322289324,281
36.335419606,263
36.348549889,257
36.361680172,287
36.374810454,277
36.387940737,314
36.40107102,287
36.414201302,290
36.427331585,281
36.440461868,305
36.45359215,286
36.466722433,242
36.479852716,284
36.492982998,240
36.506113281,280
36.519243564,234
36.532373846,289
36.545504129,277
36.558634412,268
36.571764695,261
36.584894977,307
36.59802526,248
36.611155543,266
36.624285825,292
36.637416108,274
36.650546391,262
36.663676673,279
36.676806956,285
36.689937239,264
36.703067521,286
36.716197804,268
36.729328087,258
36.742458369,237
36.755588652,238
36.768718935,263
36.781849217,272
36.7949795,243
36.808109783,265
36.821240065,275
36.834370348,307
36.847500631,281
36.860630913,260
36.873761196,262
36.886891479,275
36.900021761,275
36.913152044,249
36.926282327,249
36.939412609,240
36.952542892,292
36.965673175,285
36.978803457,289
36.99193374,264
37.005064023,282
37.018194306,286
37.031324588,271
37.044454871,241
37.057585154,259
37.070715436,284
37.083845719,261
37.096976002,263
37.110106284,244
37.123236567,266
37.13636685,271
37.149497132,295
37.162627415,281
37.175757698,265
37.18888798,293
37.202018263,298
37.215148546,264
37.228278828,286
37.241409111,255
37.254539394,289
37.267669676,273
37.280799959,280
37.293930242,261
37.307060524,270
37.320190807,282
37.33332109,304
37.346451372,306
37.359581655,313
37.372711938,255
37.38584222,324
37.398972503,293
37.412102786,308
37.425233069,313
37.438363351,316
37.451493634,298
37.464623917,327
37.477754199,316
37.490884482,295
37.504014765,280
37.517145047,283
37.53027533,303
37.543405613,324
37.556535895,347
37.569666178,327
37.582796461,319
37.595926743,367
37.609057026,414
37.622187309,384
37.635317591,388
37.648447874,422
37.661578157,461
37.674708439,445
37.687838722,492
37.700969005,532
37.714099287,573
37.72722957,593
37.740359853,737
37.753490135,753
37.766620418,787
37.779750701,817
37.792880983,849
37.806011266,873
37.819141549,884
37.832271831,829
37.845402114,893
37.858532397,891
37.87166268,776
37.884792962,794
37.897923245,756
37.911053528,751
37.92418381,659
37.937314093,603
37.950444376,595
37.963574658,516
37.976704941,491
37.989835224,493
38.002965506,460
38.016095789,423
38.029226072,418
38.042356354,348
38.055486637,366
38.06861692,350
38.081747202,359
38.094877485,324
38.108007768,311
38.12113805,342
38.134268333,309
38.147398616,316
38.160528898,306
38.173659181,294
38.186789464,278
38.199919746,307
38.213050029,269
38.226180312,289
38.239310594,244
38.252440877,246
38.26557116,268
38.278701442,270
38.291831725,267
38.304962008,271
38.318092291,236
38.331222573,294
38.344352856,243
38.357483139,247
38.370613421,263
38.383743704,245
38.396873987,267
38.410004269,286
38.423134552,238
38.436264835,268
38.449395117,248
38.4625254,244
38.475655683,224
38.488785965,272
38.501916248,269
38.515046531,231
38.528176813,227
38.541307096,277
38.554437379,241
38.567567661,247
38.580697944,241
38.593828227,278
38.606958509,247
38.620088792,277
38.633219075,285
38.646349357,262
38.65947964,269
38.672609923,269
38.685740205,265
38.698870488,277
38.712000771,228
38.725131053,238
38.738261336,249
38.751391619,278
38.764521902,263
38.777652184,249
38.790782467,262
38.80391275,259
38.817043032,237
38.830173315,278
38.843303598,234
38.85643388,229
38.869564163,261
38.882694446,289
38.895824728,245
38.908955011,258
38.922085294,237
38.935215576,240
38.948345859,268
38.961476142,237
38.974606424,263
38.987736707,266
39.00086699,213
39.013997272,225
39.027127555,258
39.040257838,256
39.05338812,264
39.066518403,291
39.079648686,265
39.092778968,227
39.105909251,256
39.119039534,200
39.132169816,244
39.145300099,236
39.158430382,241
39.171560664,249
39.184690947,271
39.19782123,228
39.210951513,232
39.224081795,236
39.237212078,216
39.250342361,256
39.263472643,235
39.276602926,242
39.289733209,258
39.302863491,236
39.315993774,227
39.329124057,239
39.342254339,248
39.355384622,236
39.368514905,244
39.381645187,261
39.39477547,247
39.407905753,222
39.421036035,213
39.434166318,245
39.447296601,268
39.460426883,238
39.473557166,221
39.486687449,221
39.499817731,238
39.512948014,279
39.526078297,232
39.539208579,257
39.552338862,275
39.565469145,266
39.578599427,203
39.59172971,275
39.604859993,264
39.617990275,265
39.631120558,234
39.644250841,235
39.657381124,210
39.670511406,244
39.683641689,268
39.696771972,246
39.709902254,234
39.723032537,230
39.73616282,224
39.749293102,241
39.762423385,205
39.775553668,265
39.78868395,228
39.801814233,248
39.814944516,255
39.828074798,270
39.841205081,223
39.854335364,263
39.867465646,226
39.880595929,235
39.893726212,209
39.906856494,262
39.919986777,234
39.93311706,255
39.946247342,274
39.959377625,272
39.972507908,261
39.98563819,256
39.998768473,245
40.011898756,296
40.025029038,263
40.038159321,282
40.051289604,266
40.064419886,271
40.077550169,278
40.090680452,295
40.103810735,263
40.116941017,294
40.1300713,255
40.143201583,286
40.156331865,316
40.169462148,323
40.182592431,309
40.195722713,319
40.208852996,372
40.221983279,413
40.235113561,446
40.248243844,527
40.261374127,534
40.274504409,640
40.287634692,743
40.300764975,778
40.313895257,764
40.32702554,700
40.340155823,761
40.353286105,733
40.366416388,688
40.379546671,706
40.392676953,636
40.405807236,629
40.418937519,583
40.432067801,544
40.445198084,467
40.458328367,465
40.471458649,414
40.484588932,405
40.497719215,413
40.510849498,367
40.52397978,329
40.537110063,295
40.550240346,269
40.563370628,284
40.576500911,264
40.589631194,237
40.602761476,287
40.615891759,260
40.629022042,261
40.642152324,265
40.655282607,268
40.66841289,266
40.681543172,285
40.694673455,272
40.707803738,256
40.72093402,238
40.734064303,239
40.747194586,224
40.760324868,227
40.773455151,247
40.786585434,261
40.799715716,228
40.812845999,232
40.825976282,232
40.839106564,277
40.852236847,237
40.86536713,228
40.878497412,227
40.891627695,275
40.904757978,240
40.91788826,206
40.931018543,239
40.944148826,262
40.957279109,247
40.970409391,222
40.983539674,246
40.996669957,260
41.009800239,208
41.022930522,220
41.036060805,224
41.049191087,235
41.06232137,244
41.075451653,245
41.088581935,218
41.101712218,245
41.114842501,207
41.127972783,239
41.141103066,265
41.154233349,216
41.167363631,240
41.180493914,231
41.193624197,218
41.206754479,222
41.219884762,208
41.233015045,227
41.246145327,234
41.25927561,243
41.272405893,228
41.285536175,244
41.298666458,243
41.311796741,238
41.324927023,218
41.338057306,237
41.351187589,202
41.364317871,221
41.377448154,229
41.390578437,226
41.40370872,237
41.416839002,231
41.429969285,224
41.443099568,259
41.45622985,238
41.469360133,262
41.482490416,244
41.495620698,223
41.508750981,216
41.521881264,224
41.535011546,228
41.548141829,233
41.561272112,226
41.574402394,213
41.587532677,277
41.60066296,225
41.613793242,233
41.626923525,218
41.640053808,226
41.65318409,224
41.666314373,232
41.679444656,228
41.692574938,256
41.705705221,224
41.718835504,215
41.731965786,221
41.745096069,238
41.758226352,217
41.771356634,264
41.784486917,210
41.7976172,236
41.810747482,226
41.823877765,211
41.837008048,222
41.850138331,222
41.863268613,211
41.876398896,265
41.889529179,213
41.902659461,228
41.915789744,219
41.928920027,209
41.942050309,190
41.955180592,218
41.968310875,222
41.981441157,211
41.99457144,200
42.007701723,231
42.020832005,238
42.033962288,257
42.047092571,231
42.060222853,209
42.073353136,212
42.086483419,260
42.099613701,226
42.112743984,219
42.125874267,211
42.139004549,223
42.152134832,237
42.165265115,203
42.178395397,205
42.19152568,245
42.204655963,221
42.217786245,227
42.230916528,239
42.244046811,216
42.257177093,235
42.270307376,229
42.283437659,200
42.296567942,211
42.309698224,255
42.322828507,239
42.33595879,212
42.349089072,267
42.362219355,221
42.375349638,234
42.38847992,235
42.401610203,260
42.414740486,232
42.427870768,245
42.441001051,271
42.454131334,242
42.467261616,228
42.480391899,246
42.493522182,277
42.506652464,233
42.519782747,266
42.53291303,237
42.546043312,274
42.559173595,282
42.572303878,246
42.58543416,247
42.598564443,296
42.611694726,269
42.624825008,306
42.637955291,268
42.651085574,276
42.664215856,284
42.677346139,279
42.690476422,306
42.703606704,289
42.716736987,301
42.72986727,291
42.742997553,359
42.756127835,331
42.769258118,373
42.782388401,419
42.795518683,524
42.808648966,574
42.821779249,709
42.834909531,727
42.848039814,814
42.861170097,845
42.874300379,822
42.887430662,782
42.900560945,755
42.913691227,813
42.92682151,739
42.939951793,690
42.953082075,713
42.966212358,672
42.979342641,640
42.992472923,599
43.005603206,587
43.018733489,512
43.031863771,509
43.044994054,445
43.058124337,412
43.071254619,391
43.084384902,371
43.097515185,343
43.110645467,298
43.12377575,283
43.136906033,297
43.150036315,263
43.163166598,279
43.176296881,286
43.189427164,229
43.202557446,259
43.215687729,233
43.228818012,236
43.241948294,216
43.255078577,224
43.26820886,235
43.281339142,224
43.294469425,230
43.307599708,256
43.32072999,245
43.333860273,230
43.346990556,240
43.360120838,207
43.373251121,210
43.386381404,247
43.399511686,259
43.412641969,215
43.425772252,221
43.438902534,217
43.452032817,212
43.4651631,234
43.478293382,208
43.491423665,203
43.504553948,231
43.51768423,233
43.530814513,209
43.543944796,226
43.557075078,209
43.570205361,245
43.583335644,262
43.596465927,203
43.609596209,228
43.622726492,247
43.635856775,216
43.648987057,245
43.66211734,203
43.675247623,218
43.688377905,222
43.701508188,236
43.714638471,202
43.727768753,199
43.740899036,226
43.754029319,237
43.767159601,229
43.780289884,218
43.793420167,218
43.806550449,223
43.819680732,220
43.832811015,235
43.845941297,228
43.85907158,227
43.872201863,211
43.885332145,248
43.898462428,224
43.911592711,238
43.924722993,226
43.937853276,222
43.950983559,232
43.964113841,231
43.977244124,224
43.990374407,193
44.003504689,221
44.016634972,239
44.029765255,227
44.042895538,209
44.05602582,243
44.069156103,227
44.082286386,223
44.095416668,203
44.108546951,222
44.121677234,206
44.134807516,233
44.147937799,204
44.161068082,228
44.174198364,228
44.187328647,229
44.20045893,222
44.213589212,233
44.226719495,181
44.239849778,203
44.25298006,236
44.266110343,198
44.279240626,210
44.292370908,199
44.305501191,217
44.318631474,202
44.331761756,225
44.344892039,228
44.358022322,233
44.371152604,201
44.384282887,225
44.39741317,209
44.410543452,233
44.423673735,203
44.436804018,211
44.4499343,206
44.463064583,224
44.476194866,211
44.489325149,201
44.502455431,216
44.515585714,212
44.528715997,196
44.541846279,219
44.554976562,207
44.568106845,213
44.581237127,205
44.59436741,202
44.607497693,219
44.620627975,218
44.633758258,220
44.646888541,219
44.660018823,232
44.673149106,239
44.686279389,208
44.699409671,230
44.712539954,234
44.725670237,217
44.738800519,222
44.751930802,213
44.765061085,236
44.778191367,218
44.79132165,235
44.804451933,229
44.817582215,222
44.830712498,217
44.843842781,258
44.856973063,225
44.870103346,206
44.883233629,201
44.896363911,213
44.909494194,184
44.922624477,196
44.93575476,210
44.948885042,199
44.962015325,211
44.975145608,209
44.98827589,182
45.001406173,207
45.014536456,231
45.027666738,211
45.040797021,219
45.053927304,219
45.067057586,195
45.080187869,207
45.093318152,224
45.106448434,172
45.119578717,215
45.132709,212
45.145839282,224
45.158969565,229
45.172099848,209
45.18523013,203
45.198360413,186
45.211490696,237
45.224620978,211
45.237751261,232
45.250881544,202
45.264011826,208
45.277142109,226
45.290272392,232
45.303402674,194
45.316532957,212
45.32966324,209
45.342793522,226
45.355923805,243
45.369054088,199
45.382184371,209
45.395314653,236
45.408444936,247
45.421575219,221
45.434705501,220
45.447835784,237
45.460966067,237
45.474096349,209
45.487226632,239
45.500356915,226
45.513487197,210
45.52661748,196
45.539747763,225
45.552878045,224
45.566008328,207
45.579138611,199
45.592268893,222
45.605399176,245
45.618529459,208
45.631659741,226
45.644790024,200
45.657920307,200
45.671050589,211
45.684180872,208
45.697311155,195
45.710441437,189
45.72357172,189
45.736702003,226
45.749832285,213
45.762962568,217
45.776092851,199
45.789223133,197
45.802353416,205
45.815483699,214
45.828613982,204
45.841744264,233
45.854874547,217
45.86800483,218
45.881135112,206
45.894265395,210
45.907395678,235
45.92052596,215
45.933656243,212
45.946786526,199
45.959916808,199
45.973047091,205
45.986177374,210
45.999307656,192
46.012437939,196
46.025568222,210
46.038698504,217
46.051828787,199
46.06495907,215
46.078089352,201
46.091219635,179
46.104349918,201
46.1174802,198
46.130610483,216
46.143740766,215
46.156871048,196
46.170001331,215
46.183131614,199
46.196261896,223
46.209392179,214
46.222522462,178
46.235652744,206
46.248783027,205
46.26191331,213
46.275043593,189
46.288173875,168
46.301304158,204
46.314434441,207
46.327564723,215
46.340695006,221
46.353825289,236
46.366955571,200
46.380085854,197
46.393216137,208
46.406346419,217
46.419476702,217
46.432606985,213
46.445737267,212
46.45886755,186
46.471997833,210
46.485128115,211
46.498258398,200
46.511388681,205
46.524518963,206
46.537649246,214
46.550779529,220
46.563909811,182
46.577040094,207
46.590170377,211
46.603300659,217
46.616430942,195
46.629561225,203
46.642691507,200
46.65582179,178
46.668952073,203
46.682082355,197
46.695212638,189
46.708342921,208
46.721473204,201
46.734603486,194
46.747733769,212
46.760864052,225
46.773994334,194
46.787124617,202
46.8002549,211
46.813385182,175
46.826515465,198
46.839645748,212
46.85277603,197
46.865906313,191
46.879036596,177
46.892166878,225
46.905297161,192
46.918427444,222
46.931557726,204
46.944688009,200
46.957818292,184
46.970948574,183
46.984078857,240
46.99720914,211
47.010339422,181
47.023469705,218
47.036599988,192
47.04973027,206
47.062860553,188
47.075990836,205
47.089121118,190
47.102251401,190
47.115381684,206
47.128511967,215
47.141642249,179
47.154772532,199
47.167902815,190
47.181033097,191
47.19416338,202
47.207293663,200
47.220423945,200
47.233554228,209
47.246684511,212
47.259814793,196
47.272945076,208
47.286075359,203
47.299205641,186
47.312335924,210
47.325466207,197
47.338596489,198
47.351726772,197
47.364857055,180
47.377987337,163
47.39111762,206
47.404247903,182
47.417378185,182
47.430508468,214
47.443638751,200
47.456769033,213
47.469899316,205
47.483029599,194
47.496159881,209
47.509290164,175
47.522420447,178
47.535550729,206
47.548681012,193
47.561811295,205
47.574941578,206
47.58807186,208
47.601202143,231
47.614332426,201
47.627462708,239
47.640592991,229
47.653723274,257
47.666853556,211
47.679983839,230
47.693114122,191
47.706244404,230
47.719374687,232
47.73250497,236
47.745635252,219
47.758765535,237
47.771895818,188
47.7850261,236
47.798156383,230
47.811286666,197
47.824416948,199
47.837547231,216
47.850677514,193
47.863807796,235
47.876938079,204
47.890068362,234
47.903198644,200
47.916328927,184
47.92945921,182
47.942589492,212
47.955719775,185
47.968850058,196
47.98198034,195
47.995110623,196
48.008240906,202
48.021371189,182
48.034501471,224
48.047631754,199
48.060762037,228
48.073892319,209
48.087022602,199
48.100152885,188
48.113283167,187
48.12641345,202
48.139543733,210
48.152674015,199
48.165804298,197
48.178934581,196
48.192064863,194
48.205195146,200
48.218325429,209
48.231455711,194
48.244585994,190
48.257716277,183
48.270846559,193
48.283976842,196
48.297107125,189
48.310237407,193
48.32336769,201
48.336497973,209
48.349628255,216
48.362758538,206
48.375888821,194
48.389019103,184
48.402149386,170
48.415279669,184
48.428409951,196
48.441540234,193
48.454670517,196
48.4678008,189
48.480931082,202
48.494061365,189
48.507191648,172
48.52032193,214
48.533452213,212
48.546582496,181
48.559712778,161
48.572843061,194
48.585973344,219
48.599103626,190
48.612233909,186
48.625364192,181
48.638494474,179
48.651624757,181
48.66475504,186
48.677885322,194
48.691015605,226
48.704145888,191
48.71727617,188
48.730406453,191
48.743536736,220
48.756667018,187
48.769797301,173
48.782927584,183
48.796057866,180
48.809188149,211
48.822318432,186
48.835448714,213
48.848578997,227
48.86170928,191
48.874839562,197
48.887969845,189
48.901100128,175
48.914230411,182
48.927360693,194
48.940490976,194
48.953621259,178
48.966751541,189
48.979881824,207
48.993012107,212
49.006142389,228
49.019272672,185
49.032402955,206
49.045533237,195
49.05866352,177
49.071793803,167
49.084924085,190
49.098054368,206
49.111184651,190
49.124314933,219
49.137445216,177
49.150575499,184
49.163705781,167
49.176836064,186
49.189966347,192
49.203096629,184
49.216226912,226
49.229357195,197
49.242487477,215
49.25561776,211
49.268748043,175
49.281878325,183
49.295008608,179
49.308138891,210
49.321269173,183
49.334399456,178
49.347529739,186
49.360660022,193
49.373790304,193
49.386920587,171
49.40005087,186
49.413181152,177
49.426311435,185
49.439441718,167
49.452572,201
49.465702283,192
49.478832566,202
49.491962848,180
49.505093131,185
49.518223414,193
49.531353696,189
49.544483979,194
49.557614262,201
49.570744544,212
49.583874827,212
49.59700511,245
49.610135392,204
49.623265675,203
49.636395958,216
49.64952624,215
49.662656523,243
49.675786806,238
49.688917088,223
49.702047371,246
49.715177654,246
49.728307936,241
49.741438219,258
49.754568502,258
49.767698784,263
49.780829067,299
49.79395935,336
49.807089633,363
49.820219915,377
49.833350198,437
49.846480481,489
49.859610763,559
49.872741046,532
49.885871329,602
49.899001611,611
49.912131894,668
49.925262177,610
49.938392459,638
49.951522742,644
49.964653025,650
49.977783307,641
49.99091359,587
